Time,ADC
0.0,631.0
0.01,641.0
0.02,645.0
0.03,627.0
0.04,596.0
0.05,566.0
0.06,547.0
0.07,543.0
0.08,540.0
0.09,537.0
0.1,542.0
0.11,541.0
0.12,540.0
0.13,544.0
0.14,544.0
0.15,542.0
0.16,549.0
0.17,546.0
0.18,546.0
0.19,546.0
0.2,545.0
0.21,546.0
0.22,548.0
0.23,550.0
0.24,547.0
0.25,548.0
0.26,553.0
0.27,545.0
0.28,548.0
0.29,550.0
0.3,550.0
0.31,556.0
0.32,552.0
0.33,555.0
0.34,553.0
0.35000000000000003,553.0
0.36,565.0
0.37,558.0
0.38,559.0
0.39,556.0
0.4,560.0
0.41000000000000003,558.0
0.42,471.0
0.43,435.0
0.44,976.0
0.45,772.0
0.46,509.0
0.47000000000000003,576.0
0.48,555.0
0.49,560.0
0.5,560.0
0.51,555.0
0.52,566.0
0.53,554.0
0.54,564.0
0.55,561.0
0.56,565.0
0.5700000000000001,571.0
0.58,595.0
0.59,594.0
0.6,600.0
0.61,621.0
0.62,621.0
0.63,625.0
0.64,645.0
0.65,645.0
0.66,627.0
0.67,595.0
0.68,560.0
0.6900000000000001,541.0
0.7000000000000001,526.0
0.71,529.0
0.72,523.0
0.73,513.0
0.74,523.0
0.75,526.0
0.76,510.0
0.77,520.0
0.78,525.0
0.79,522.0
0.8,523.0
0.81,523.0
0.8200000000000001,521.0
0.8300000000000001,528.0
0.84,531.0
0.85,528.0
0.86,528.0
0.87,533.0
0.88,533.0
0.89,535.0
0.9,536.0
0.91,537.0
0.92,541.0
0.93,541.0
0.9400000000000001,538.0
0.9500000000000001,548.0
0.96,531.0
0.97,537.0
0.98,535.0
0.99,534.0
1.0,541.0
1.01,525.0
1.02,382.0
1.03,660.0
1.04,994.0
1.05,523.0
1.06,506.0
1.07,552.0
1.08,531.0
1.09,536.0
1.1,544.0
1.11,541.0
1.12,543.0
1.1300000000000001,544.0
1.1400000000000001,546.0
1.1500000000000001,553.0
1.16,555.0
1.17,560.0
1.18,569.0
1.19,586.0
1.2,594.0
1.21,605.0
1.22,615.0
1.23,617.0
1.24,633.0
1.25,612.0
1.26,593.0
1.27,552.0
1.28,532.0
1.29,523.0
1.3,513.0
1.31,513.0
1.32,517.0
1.33,509.0
1.34,517.0
1.35,516.0
1.36,513.0
1.37,513.0
1.3800000000000001,519.0
1.3900000000000001,518.0
1.4000000000000001,524.0
1.41,516.0
1.42,521.0
1.43,521.0
1.44,518.0
1.45,524.0
1.46,520.0
1.47,522.0
1.48,519.0
1.49,522.0
1.5,533.0
1.51,526.0
1.52,537.0
1.53,528.0
1.54,530.0
1.55,528.0
1.56,524.0
1.57,524.0
1.58,522.0
1.59,523.0
1.6,525.0
1.61,414.0
1.62,476.0
1.6300000000000001,991.0
1.6400000000000001,609.0
1.6500000000000001,462.0
1.6600000000000001,544.0
1.67,514.0
1.68,521.0
1.69,525.0
1.7,525.0
1.71,526.0
1.72,531.0
1.73,534.0
1.74,535.0
1.75,542.0
1.76,548.0
1.77,556.0
1.78,569.0
1.79,577.0
1.8,586.0
1.81,597.0
1.82,608.0
1.83,619.0
1.84,615.0
1.85,594.0
1.86,559.0
1.87,530.0
1.8800000000000001,522.0
1.8900000000000001,516.0
1.9000000000000001,517.0
1.9100000000000001,518.0
1.92,521.0
1.93,520.0
1.94,525.0
1.95,525.0
1.96,525.0
1.97,528.0
1.98,526.0
1.99,530.0
2.0,532.0
2.0100000000000002,531.0
2.02,534.0
2.0300000000000002,533.0
2.04,533.0
2.05,535.0
2.06,535.0
2.07,537.0
2.08,545.0
2.09,542.0
2.1,546.0
2.11,545.0
2.12,545.0
2.13,543.0
2.14,547.0
2.15,545.0
2.16,543.0
2.17,546.0
2.18,558.0
2.19,506.0
2.2,413.0
2.21,804.0
2.22,838.0
2.23,538.0
2.24,535.0
2.25,557.0
2.2600000000000002,545.0
2.27,554.0
2.2800000000000002,554.0
2.29,557.0
2.3000000000000003,557.0
2.31,558.0
2.32,566.0
2.33,571.0
2.34,573.0
2.35,580.0
2.36,586.0
2.37,602.0
2.38,612.0
2.39,615.0
2.4,626.0
2.41,632.0
2.42,642.0
2.43,631.0
2.44,607.0
2.45,579.0
2.46,555.0
2.47,548.0
2.48,537.0
2.49,546.0
2.5,545.0
2.5100000000000002,545.0
2.52,550.0
2.5300000000000002,543.0
2.54,550.0
2.5500000000000003,552.0
2.56,553.0
2.57,557.0
2.58,552.0
2.59,547.0
2.6,556.0
2.61,550.0
2.62,559.0
2.63,560.0
2.64,566.0
2.65,562.0
2.66,561.0
2.67,564.0
2.68,555.0
2.69,558.0
2.7,555.0
2.71,559.0
2.72,560.0
2.73,555.0
2.74,436.0
2.75,589.0
2.7600000000000002,991.0
2.77,596.0
2.7800000000000002,545.0
2.79,558.0
2.8000000000000003,565.0
2.81,565.0
2.82,566.0
2.83,568.0
2.84,568.0
2.85,572.0
2.86,574.0
2.87,581.0
2.88,580.0
2.89,591.0
2.9,597.0
2.91,607.0
2.92,621.0
2.93,627.0
2.94,634.0
2.95,644.0
2.96,645.0
2.97,641.0
2.98,614.0
2.99,584.0
3.0,562.0
3.0100000000000002,553.0
3.02,552.0
3.0300000000000002,548.0
3.04,546.0
3.0500000000000003,546.0
3.06,544.0
3.0700000000000003,549.0
3.08,549.0
3.09,552.0
3.1,550.0
3.11,553.0
3.12,553.0
3.13,546.0
3.14,552.0
3.15,550.0
3.16,548.0
3.17,555.0
3.18,566.0
3.19,565.0
3.2,573.0
3.21,572.0
3.22,552.0
3.23,550.0
3.24,546.0
3.25,542.0
3.2600000000000002,541.0
3.27,537.0
3.2800000000000002,540.0
3.29,543.0
3.3000000000000003,494.0
3.31,391.0
3.3200000000000003,846.0
3.33,850.0
3.34,496.0
3.35,538.0
3.36,548.0
3.37,534.0
3.38,545.0
3.39,545.0
3.4,550.0
3.41,550.0
3.42,554.0
3.43,558.0
3.44,559.0
3.45,569.0
3.46,573.0
3.47,585.0
3.48,596.0
3.49,609.0
3.5,616.0
3.5100000000000002,619.0
3.52,633.0
3.5300000000000002,637.0
3.54,616.0
3.5500000000000003,594.0
3.56,555.0
3.5700000000000003,540.0
3.58,524.0
3.59,525.0
3.6,525.0
3.61,525.0
3.62,526.0
3.63,529.0
3.64,525.0
3.65,532.0
3.66,526.0
3.67,532.0
3.68,525.0
3.69,535.0
3.7,543.0
3.71,547.0
3.72,560.0
3.73,568.0
3.74,546.0
3.75,528.0
3.7600000000000002,528.0
3.77,525.0
3.7800000000000002,525.0
3.79,526.0
3.8000000000000003,525.0
3.81,526.0
3.8200000000000003,528.0
3.83,454.0
3.84,426.0
3.85,902.0
3.86,677.0
3.87,516.0
3.88,513.0
3.89,533.0
3.9,528.0
3.91,533.0
3.92,535.0
3.93,537.0
3.94,543.0
3.95,549.0
3.96,552.0
3.97,556.0
3.98,561.0
3.99,569.0
4.0,579.0
4.01,589.0
4.0200000000000005,598.0
4.03,608.0
4.04,615.0
4.05,619.0
4.0600000000000005,616.0
4.07,596.0
4.08,566.0
4.09,543.0
4.1,530.0
4.11,525.0
4.12,525.0
4.13,525.0
4.14,522.0
4.15,525.0
4.16,530.0
4.17,526.0
4.18,528.0
4.19,532.0
4.2,532.0
4.21,531.0
4.22,537.0
4.23,545.0
4.24,553.0
4.25,559.0
4.26,568.0
4.2700000000000005,552.0
4.28,533.0
4.29,530.0
4.3,528.0
4.3100000000000005,526.0
4.32,525.0
4.33,528.0
4.34,526.0
4.3500000000000005,526.0
4.36,470.0
4.37,385.0
4.38,868.0
4.39,806.0
4.4,463.0
4.41,534.0
4.42,532.0
4.43,532.0
4.44,536.0
4.45,535.0
4.46,542.0
4.47,546.0
4.48,548.0
4.49,553.0
4.5,560.0
4.51,562.0
4.5200000000000005,573.0
4.53,584.0
4.54,594.0
4.55,612.0
4.5600000000000005,615.0
4.57,627.0
4.58,632.0
4.59,629.0
4.6000000000000005,612.0
4.61,569.0
4.62,545.0
4.63,534.0
4.64,523.0
4.65,521.0
4.66,518.0
4.67,520.0
4.68,517.0
4.69,518.0
4.7,519.0
4.71,517.0
4.72,526.0
4.73,517.0
4.74,524.0
4.75,521.0
4.76,521.0
4.7700000000000005,528.0
4.78,533.0
4.79,548.0
4.8,554.0
4.8100000000000005,569.0
4.82,556.0
4.83,541.0
4.84,531.0
4.8500000000000005,533.0
4.86,534.0
4.87,534.0
4.88,531.0
4.89,534.0
4.9,532.0
4.91,487.0
4.92,386.0
4.93,822.0
4.94,822.0
4.95,513.0
4.96,521.0
4.97,543.0
4.98,534.0
4.99,542.0
5.0,540.0
5.01,541.0
5.0200000000000005,548.0
5.03,552.0
5.04,556.0
5.05,559.0
5.0600000000000005,567.0
5.07,571.0
5.08,584.0
5.09,593.0
5.1000000000000005,606.0
5.11,613.0
5.12,625.0
5.13,629.0
5.14,630.0
5.15,614.0
5.16,586.0
5.17,554.0
5.18,541.0
5.19,535.0
5.2,531.0
5.21,525.0
5.22,531.0
5.23,529.0
5.24,528.0
5.25,526.0
5.26,534.0
5.2700000000000005,530.0
5.28,534.0
5.29,533.0
5.3,534.0
5.3100000000000005,532.0
5.32,542.0
5.33,554.0
5.34,554.0
5.3500000000000005,577.0
5.36,569.0
5.37,548.0
5.38,538.0
5.39,541.0
5.4,541.0
5.41,540.0
5.42,537.0
5.43,541.0
5.44,538.0
5.45,530.0
5.46,403.0
5.47,593.0
5.48,980.0
5.49,572.0
5.5,509.0
5.51,545.0
5.5200000000000005,545.0
5.53,545.0
5.54,548.0
5.55,553.0
5.5600000000000005,553.0
5.57,559.0
5.58,560.0
5.59,565.0
5.6000000000000005,572.0
5.61,583.0
5.62,589.0
5.63,598.0
5.64,608.0
5.65,621.0
5.66,631.0
5.67,636.0
5.68,645.0
5.69,636.0
5.7,606.0
5.71,579.0
5.72,555.0
5.73,543.0
5.74,545.0
5.75,540.0
5.76,544.0
5.7700000000000005,543.0
5.78,544.0
5.79,545.0
5.8,547.0
5.8100000000000005,550.0
5.82,548.0
5.83,548.0
5.84,554.0
5.8500000000000005,549.0
5.86,546.0
5.87,550.0
5.88,548.0
5.89,555.0
5.9,566.0
5.91,569.0
5.92,585.0
5.93,579.0
5.94,560.0
5.95,553.0
5.96,550.0
5.97,545.0
5.98,548.0
5.99,545.0
6.0,541.0
6.01,547.0
6.0200000000000005,534.0
6.03,386.0
6.04,656.0
6.05,1006.0
6.0600000000000005,537.0
6.07,522.0
6.08,565.0
6.09,550.0
6.1000000000000005,558.0
6.11,554.0
6.12,558.0
6.13,558.0
6.140000000000001,568.0
6.15,572.0
6.16,572.0
6.17,572.0
6.18,585.0
6.19,595.0
6.2,606.0
6.21,620.0
6.22,627.0
6.23,633.0
6.24,644.0
6.25,648.0
6.26,640.0
6.2700000000000005,609.0
6.28,568.0
6.29,552.0
6.3,546.0
6.3100000000000005,534.0
6.32,532.0
6.33,535.0
6.34,534.0
6.3500000000000005,535.0
6.36,534.0
6.37,537.0
6.38,536.0
6.390000000000001,541.0
6.4,537.0
6.41,535.0
6.42,542.0
6.43,545.0
6.44,545.0
6.45,542.0
6.46,556.0
6.47,565.0
6.48,578.0
6.49,586.0
6.5,579.0
6.51,553.0
6.5200000000000005,546.0
6.53,545.0
6.54,543.0
6.55,544.0
6.5600000000000005,540.0
6.57,544.0
6.58,543.0
6.59,481.0
6.6000000000000005,404.0
6.61,849.0
6.62,804.0
6.63,523.0
6.640000000000001,524.0
6.65,548.0
6.66,543.0
6.67,552.0
6.68,549.0
6.69,555.0
6.7,558.0
6.71,566.0
6.72,558.0
6.73,572.0
6.74,572.0
6.75,577.0
6.76,588.0
6.7700000000000005,598.0
6.78,604.0
6.79,613.0
6.8,622.0
6.8100000000000005,626.0
6.82,626.0
6.83,608.0
6.84,580.0
6.8500000000000005,555.0
6.86,536.0
6.87,533.0
6.88,525.0
6.890000000000001,528.0
6.9,525.0
6.91,529.0
6.92,530.0
6.93,532.0
6.94,530.0
6.95,530.0
6.96,534.0
6.97,531.0
6.98,536.0
6.99,534.0
7.0,536.0
7.01,545.0
7.0200000000000005,550.0
7.03,558.0
7.04,573.0
7.05,566.0
7.0600000000000005,550.0
7.07,540.0
7.08,540.0
7.09,534.0
7.1000000000000005,532.0
7.11,537.0
7.12,535.0
7.13,535.0
7.140000000000001,525.0
7.15,388.0
7.16,615.0
7.17,982.0
7.18,552.0
7.19,507.0
7.2,549.0
7.21,538.0
7.22,540.0
7.23,546.0
7.24,544.0
7.25,548.0
7.26,555.0
7.2700000000000005,558.0
7.28,560.0
7.29,568.0
7.3,571.0
7.3100000000000005,583.0
7.32,594.0
7.33,601.0
7.34,613.0
7.3500000000000005,622.0
7.36,627.0
7.37,634.0
7.38,625.0
7.390000000000001,593.0
7.4,561.0
7.41,542.0
7.42,531.0
7.43,530.0
7.44,531.0
7.45,533.0
7.46,530.0
7.47,532.0
7.48,537.0
7.49,535.0
7.5,534.0
7.51,534.0
7.5200000000000005,535.0
7.53,535.0
7.54,537.0
7.55,533.0
7.5600000000000005,535.0
7.57,535.0
7.58,536.0
7.59,537.0
7.6000000000000005,543.0
7.61,554.0
7.62,560.0
7.63,574.0
7.640000000000001,572.0
7.65,560.0
7.66,547.0
7.67,546.0
7.68,545.0
7.69,541.0
7.7,542.0
7.71,545.0
7.72,544.0
7.73,531.0
7.74,380.0
7.75,713.0
7.76,982.0
7.7700000000000005,526.0
7.78,532.0
7.79,568.0
7.8,543.0
7.8100000000000005,559.0
7.82,554.0
7.83,561.0
7.84,567.0
7.8500000000000005,558.0
7.86,569.0
7.87,568.0
7.88,578.0
7.890000000000001,588.0
7.9,593.0
7.91,612.0
7.92,620.0
7.930000000000001,627.0
7.94,640.0
7.95,646.0
7.96,656.0
7.97,644.0
7.98,615.0
7.99,586.0
8.0,565.0
8.01,552.0
8.02,553.0
8.03,542.0
8.040000000000001,552.0
8.05,548.0
8.06,549.0
8.07,553.0
8.08,550.0
8.09,550.0
8.1,547.0
8.11,546.0
8.120000000000001,552.0
8.13,552.0
8.14,554.0
8.15,555.0
8.16,555.0
8.17,552.0
8.18,572.0
8.19,570.0
8.2,586.0
8.21,597.0
8.22,581.0
8.23,565.0
8.24,559.0
8.25,558.0
8.26,556.0
8.27,558.0
8.28,558.0
8.290000000000001,555.0
8.3,553.0
8.31,459.0
8.32,466.0
8.33,946.0
8.34,693.0
8.35,536.0
8.36,552.0
8.370000000000001,558.0
8.38,552.0
8.39,561.0
8.4,561.0
8.41,568.0
8.42,567.0
8.43,572.0
8.44,576.0
8.45,580.0
8.46,585.0
8.47,590.0
8.48,598.0
8.49,609.0
8.5,618.0
8.51,627.0
8.52,634.0
8.53,643.0
8.540000000000001,645.0
8.55,618.0
8.56,595.0
8.57,570.0
8.58,552.0
8.59,550.0
8.6,552.0
8.61,546.0
8.620000000000001,548.0
8.63,550.0
8.64,552.0
8.65,554.0
8.66,552.0
8.67,553.0
8.68,554.0
8.69,554.0
8.700000000000001,554.0
8.71,555.0
8.72,555.0
8.73,554.0
8.74,552.0
8.75,559.0
8.76,569.0
8.77,577.0
8.78,590.0
8.790000000000001,582.0
8.8,560.0
8.81,555.0
8.82,552.0
8.83,552.0
8.84,543.0
8.85,549.0
8.86,546.0
8.870000000000001,549.0
8.88,489.0
8.89,402.0
8.9,904.0
8.91,820.0
8.92,495.0
8.93,555.0
8.94,554.0
8.950000000000001,548.0
8.96,553.0
8.97,555.0
8.98,556.0
8.99,560.0
9.0,562.0
9.01,567.0
9.02,568.0
9.03,577.0
9.040000000000001,583.0
9.05,594.0
9.06,602.0
9.07,614.0
9.08,621.0
9.09,629.0
9.1,640.0
9.11,643.0
9.120000000000001,619.0
9.13,588.0
9.14,552.0
9.15,533.0
9.16,530.0
9.17,531.0
9.18,528.0
9.19,524.0
9.200000000000001,532.0
9.21,530.0
9.22,528.0
9.23,531.0
9.24,530.0
9.25,529.0
9.26,528.0
9.27,526.0
9.28,530.0
9.290000000000001,520.0
9.3,530.0
9.31,524.0
9.32,518.0
9.33,526.0
9.34,528.0
9.35,524.0
9.36,524.0
9.370000000000001,531.0
9.38,543.0
9.39,545.0
9.4,567.0
9.41,558.0
9.42,534.0
9.43,532.0
9.44,526.0
9.450000000000001,522.0
9.46,517.0
9.47,526.0
9.48,521.0
9.49,524.0
9.5,432.0
9.51,437.0
9.52,942.0
9.53,673.0
9.540000000000001,495.0
9.55,526.0
9.56,532.0
9.57,530.0
9.58,531.0
9.59,531.0
9.6,533.0
9.61,532.0
9.620000000000001,536.0
9.63,541.0
9.64,544.0
9.65,548.0
9.66,550.0
9.67,567.0
9.68,572.0
9.69,584.0
9.700000000000001,589.0
9.71,598.0
9.72,607.0
9.73,612.0
9.74,591.0
9.75,561.0
9.76,535.0
9.77,518.0
9.78,511.0
9.790000000000001,508.0
9.8,513.0
9.81,506.0
9.82,511.0
9.83,508.0
9.84,511.0
9.85,512.0
9.86,508.0
9.870000000000001,513.0
9.88,509.0
9.89,513.0
9.9,514.0
9.91,512.0
9.92,521.0
9.93,533.0
9.94,537.0
9.950000000000001,553.0
9.96,545.0
9.97,524.0
9.98,519.0
9.99,518.0
