Time,ADC
0.0,552.0
0.01,550.0
0.02,548.0
0.03,543.0
0.04,543.0
0.05,546.0
0.06,553.0
0.07,552.0
0.08,556.0
0.09,560.0
0.1,558.0
0.11,561.0
0.12,567.0
0.13,568.0
0.14,568.0
0.15,572.0
0.16,571.0
0.17,577.0
0.18,568.0
0.19,577.0
0.2,572.0
0.21,568.0
0.22,568.0
0.23,562.0
0.24,562.0
0.25,562.0
0.26,463.0
0.27,465.0
0.28,976.0
0.29,736.0
0.3,532.0
0.31,567.0
0.32,553.0
0.33,555.0
0.34,556.0
0.35000000000000003,559.0
0.36,559.0
0.37,562.0
0.38,562.0
0.39,568.0
0.4,573.0
0.41000000000000003,578.0
0.42,583.0
0.43,593.0
0.44,605.0
0.45,615.0
0.46,627.0
0.47000000000000003,636.0
0.48,644.0
0.49,648.0
0.5,652.0
0.51,636.0
0.52,608.0
0.53,572.0
0.54,547.0
0.55,533.0
0.56,526.0
0.5700000000000001,526.0
0.58,528.0
0.59,530.0
0.6,531.0
0.61,532.0
0.62,535.0
0.63,537.0
0.64,541.0
0.65,542.0
0.66,541.0
0.67,543.0
0.68,542.0
0.6900000000000001,546.0
0.7000000000000001,549.0
0.71,550.0
0.72,548.0
0.73,550.0
0.74,542.0
0.75,546.0
0.76,552.0
0.77,548.0
0.78,547.0
0.79,553.0
0.8,552.0
0.81,558.0
0.8200000000000001,558.0
0.8300000000000001,562.0
0.84,556.0
0.85,558.0
0.86,565.0
0.87,569.0
0.88,568.0
0.89,577.0
0.9,572.0
0.91,569.0
0.92,578.0
0.93,571.0
0.9400000000000001,572.0
0.9500000000000001,528.0
0.96,424.0
0.97,892.0
0.98,901.0
0.99,550.0
1.0,582.0
1.01,579.0
1.02,576.0
1.03,577.0
1.04,576.0
1.05,577.0
1.06,576.0
1.07,576.0
1.08,572.0
1.09,579.0
1.1,579.0
1.11,591.0
1.12,594.0
1.1300000000000001,608.0
1.1400000000000001,614.0
1.1500000000000001,625.0
1.16,640.0
1.17,653.0
1.18,654.0
1.19,663.0
1.2,674.0
1.21,645.0
1.22,612.0
1.23,590.0
1.24,571.0
1.25,556.0
1.26,550.0
1.27,552.0
1.28,549.0
1.29,552.0
1.3,553.0
1.31,552.0
1.32,558.0
1.33,553.0
1.34,554.0
1.35,558.0
1.36,558.0
1.37,561.0
1.3800000000000001,560.0
1.3900000000000001,559.0
1.4000000000000001,562.0
1.41,568.0
1.42,561.0
1.43,561.0
1.44,567.0
1.45,567.0
1.46,571.0
1.47,562.0
1.48,571.0
1.49,569.0
1.5,567.0
1.51,568.0
1.52,572.0
1.53,568.0
1.54,566.0
1.55,499.0
1.56,452.0
1.57,925.0
1.58,810.0
1.59,559.0
1.6,576.0
1.61,578.0
1.62,579.0
1.6300000000000001,580.0
1.6400000000000001,577.0
1.6500000000000001,576.0
1.6600000000000001,571.0
1.67,578.0
1.68,577.0
1.69,578.0
1.7,579.0
1.71,586.0
1.72,595.0
1.73,605.0
1.74,613.0
1.75,621.0
1.76,630.0
1.77,636.0
1.78,648.0
1.79,646.0
1.8,637.0
1.81,609.0
1.82,574.0
1.83,555.0
1.84,540.0
1.85,533.0
1.86,532.0
1.87,532.0
1.8800000000000001,531.0
1.8900000000000001,532.0
1.9000000000000001,531.0
1.9100000000000001,535.0
1.92,540.0
1.93,540.0
1.94,537.0
1.95,544.0
1.96,541.0
1.97,544.0
1.98,546.0
1.99,553.0
2.0,550.0
2.0100000000000002,554.0
2.02,554.0
2.0300000000000002,556.0
2.04,555.0
2.05,556.0
2.06,558.0
2.07,559.0
2.08,554.0
2.09,559.0
2.1,555.0
2.11,562.0
2.12,558.0
2.13,552.0
2.14,553.0
2.15,554.0
2.16,552.0
2.17,535.0
2.18,388.0
2.19,664.0
2.2,1024.0
2.21,567.0
2.22,535.0
2.23,572.0
2.24,552.0
2.25,557.0
2.2600000000000002,560.0
2.27,564.0
2.2800000000000002,562.0
2.29,566.0
2.3000000000000003,570.0
2.31,568.0
2.32,571.0
2.33,579.0
2.34,586.0
2.35,595.0
2.36,605.0
2.37,618.0
2.38,629.0
2.39,640.0
2.4,646.0
2.41,654.0
2.42,656.0
2.43,643.0
2.44,608.0
2.45,578.0
2.46,560.0
2.47,550.0
2.48,546.0
2.49,544.0
2.5,545.0
2.5100000000000002,546.0
2.52,544.0
2.5300000000000002,546.0
2.54,552.0
2.5500000000000003,549.0
2.56,546.0
2.57,546.0
2.58,544.0
2.59,544.0
2.6,541.0
2.61,537.0
2.62,540.0
2.63,541.0
2.64,536.0
2.65,540.0
2.66,545.0
2.67,545.0
2.68,546.0
2.69,548.0
2.7,545.0
2.71,552.0
2.72,546.0
2.73,556.0
2.74,554.0
2.75,550.0
2.7600000000000002,554.0
2.77,554.0
2.7800000000000002,554.0
2.79,542.0
2.8000000000000003,394.0
2.81,644.0
2.82,1024.0
2.83,576.0
2.84,537.0
2.85,572.0
2.86,554.0
2.87,559.0
2.88,561.0
2.89,567.0
2.9,567.0
2.91,569.0
2.92,569.0
2.93,572.0
2.94,577.0
2.95,580.0
2.96,590.0
2.97,597.0
2.98,612.0
2.99,622.0
3.0,634.0
3.0100000000000002,643.0
3.02,648.0
3.0300000000000002,657.0
3.04,657.0
3.0500000000000003,634.0
3.06,601.0
3.0700000000000003,574.0
3.08,552.0
3.09,542.0
3.1,540.0
3.11,537.0
3.12,540.0
3.13,541.0
3.14,541.0
3.15,541.0
3.16,544.0
3.17,545.0
3.18,545.0
3.19,546.0
3.2,545.0
3.21,553.0
3.22,556.0
3.23,546.0
3.24,558.0
3.25,559.0
3.2600000000000002,558.0
3.27,568.0
3.2800000000000002,560.0
3.29,569.0
3.3000000000000003,571.0
3.31,566.0
3.3200000000000003,567.0
3.33,569.0
3.34,571.0
3.35,572.0
3.36,505.0
3.37,428.0
3.38,905.0
3.39,845.0
3.4,541.0
3.41,577.0
3.42,568.0
3.43,553.0
3.44,565.0
3.45,558.0
3.46,567.0
3.47,561.0
3.48,561.0
3.49,566.0
3.5,569.0
3.5100000000000002,572.0
3.52,577.0
3.5300000000000002,586.0
3.54,601.0
3.5500000000000003,612.0
3.56,624.0
3.5700000000000003,638.0
3.58,637.0
3.59,656.0
3.6,661.0
3.61,638.0
3.62,613.0
3.63,578.0
3.64,568.0
3.65,549.0
3.66,537.0
3.67,544.0
3.68,544.0
3.69,544.0
3.7,544.0
3.71,552.0
3.72,546.0
3.73,552.0
3.74,558.0
3.75,558.0
3.7600000000000002,553.0
3.77,558.0
3.7800000000000002,560.0
3.79,571.0
3.8000000000000003,574.0
3.81,576.0
3.8200000000000003,586.0
3.83,580.0
3.84,571.0
3.85,576.0
3.86,572.0
3.87,567.0
3.88,562.0
3.89,568.0
3.9,573.0
3.91,540.0
3.92,417.0
3.93,783.0
3.94,912.0
3.95,558.0
3.96,566.0
3.97,571.0
3.98,569.0
3.99,571.0
4.0,572.0
4.01,571.0
4.0200000000000005,574.0
4.03,576.0
4.04,577.0
4.05,579.0
4.0600000000000005,580.0
4.07,589.0
4.08,595.0
4.09,606.0
4.1,619.0
4.11,627.0
4.12,637.0
4.13,646.0
4.14,654.0
4.15,658.0
4.16,648.0
4.17,624.0
4.18,591.0
4.19,567.0
4.2,552.0
4.21,545.0
4.22,543.0
4.23,541.0
4.24,541.0
4.25,544.0
4.26,541.0
4.2700000000000005,541.0
4.28,542.0
4.29,543.0
4.3,543.0
4.3100000000000005,541.0
4.32,542.0
4.33,544.0
4.34,544.0
4.3500000000000005,546.0
4.36,557.0
4.37,560.0
4.38,566.0
4.39,578.0
4.4,566.0
4.41,548.0
4.42,545.0
4.43,542.0
4.44,540.0
4.45,542.0
4.46,543.0
4.47,542.0
4.48,541.0
4.49,438.0
4.5,464.0
4.51,985.0
4.5200000000000005,705.0
4.53,495.0
4.54,560.0
4.55,541.0
4.5600000000000005,544.0
4.57,548.0
4.58,553.0
4.59,554.0
4.6000000000000005,558.0
4.61,560.0
4.62,560.0
4.63,565.0
4.64,572.0
4.65,583.0
4.66,593.0
4.67,594.0
4.68,612.0
4.69,621.0
4.7,633.0
4.71,641.0
4.72,648.0
4.73,648.0
4.74,627.0
4.75,600.0
4.76,570.0
4.7700000000000005,552.0
4.78,542.0
4.79,536.0
4.8,534.0
4.8100000000000005,533.0
4.82,534.0
4.83,540.0
4.84,542.0
4.8500000000000005,535.0
4.86,540.0
4.87,544.0
4.88,540.0
4.89,535.0
4.9,538.0
4.91,542.0
4.92,541.0
4.93,542.0
4.94,546.0
4.95,542.0
4.96,544.0
4.97,552.0
4.98,552.0
4.99,558.0
5.0,553.0
5.01,550.0
5.0200000000000005,555.0
5.03,550.0
5.04,556.0
5.05,552.0
5.0600000000000005,555.0
5.07,565.0
5.08,580.0
5.09,586.0
5.1000000000000005,571.0
5.11,560.0
5.12,554.0
5.13,549.0
5.14,552.0
5.15,547.0
5.16,548.0
5.17,545.0
5.18,534.0
5.19,389.0
5.2,700.0
5.21,957.0
5.22,554.0
5.23,540.0
5.24,554.0
5.25,543.0
5.26,543.0
5.2700000000000005,544.0
5.28,552.0
5.29,550.0
5.3,552.0
5.3100000000000005,556.0
5.32,558.0
5.33,567.0
5.34,572.0
5.3500000000000005,580.0
5.36,585.0
5.37,597.0
5.38,608.0
5.39,615.0
5.4,626.0
5.41,627.0
5.42,637.0
5.43,641.0
5.44,627.0
5.45,604.0
5.46,572.0
5.47,553.0
5.48,542.0
5.49,536.0
5.5,540.0
5.51,540.0
5.5200000000000005,538.0
5.53,541.0
5.54,547.0
5.55,548.0
5.5600000000000005,552.0
5.57,556.0
5.58,554.0
5.59,558.0
5.6000000000000005,560.0
5.61,561.0
5.62,566.0
5.63,568.0
5.64,577.0
5.65,585.0
5.66,594.0
5.67,606.0
5.68,597.0
5.69,576.0
5.7,571.0
5.71,566.0
5.72,561.0
5.73,566.0
5.74,566.0
5.75,565.0
5.76,566.0
5.7700000000000005,531.0
5.78,402.0
5.79,741.0
5.8,986.0
5.8100000000000005,552.0
5.82,555.0
5.83,581.0
5.84,566.0
5.8500000000000005,576.0
5.86,574.0
5.87,576.0
5.88,577.0
5.89,578.0
5.9,583.0
5.91,586.0
5.92,588.0
5.93,594.0
5.94,600.0
5.95,607.0
5.96,619.0
5.97,626.0
5.98,638.0
5.99,646.0
6.0,657.0
6.01,664.0
6.0200000000000005,661.0
6.03,631.0
6.04,591.0
6.05,568.0
6.0600000000000005,553.0
6.07,548.0
6.08,548.0
6.09,546.0
6.1000000000000005,552.0
6.11,552.0
6.12,552.0
6.13,552.0
6.140000000000001,546.0
6.15,548.0
6.16,545.0
6.17,544.0
6.18,541.0
6.19,536.0
6.2,542.0
6.21,533.0
6.22,535.0
6.23,544.0
6.24,537.0
6.25,536.0
6.26,545.0
6.2700000000000005,548.0
6.28,543.0
6.29,549.0
6.3,545.0
6.3100000000000005,546.0
6.32,545.0
6.33,552.0
6.34,557.0
6.3500000000000005,565.0
6.36,579.0
6.37,573.0
6.38,567.0
6.390000000000001,549.0
6.4,554.0
6.41,548.0
6.42,545.0
6.43,549.0
6.44,555.0
6.45,558.0
6.46,476.0
6.47,438.0
6.48,931.0
6.49,786.0
6.5,549.0
6.51,561.0
6.5200000000000005,562.0
6.53,567.0
6.54,562.0
6.55,568.0
6.5600000000000005,569.0
6.57,571.0
6.58,578.0
6.59,571.0
6.6000000000000005,585.0
6.61,584.0
6.62,593.0
6.63,595.0
6.640000000000001,607.0
6.65,626.0
6.66,628.0
6.67,640.0
6.68,642.0
6.69,652.0
6.7,666.0
6.71,664.0
6.72,634.0
6.73,609.0
6.74,591.0
6.75,570.0
6.76,562.0
6.7700000000000005,555.0
6.78,560.0
6.79,555.0
6.8,553.0
6.8100000000000005,558.0
6.82,553.0
6.83,556.0
6.84,559.0
6.8500000000000005,555.0
6.86,556.0
6.87,558.0
6.88,561.0
6.890000000000001,567.0
6.9,569.0
6.91,567.0
6.92,574.0
6.93,585.0
6.94,593.0
6.95,605.0
6.96,602.0
6.97,588.0
6.98,573.0
6.99,571.0
7.0,566.0
7.01,561.0
7.0200000000000005,564.0
7.03,567.0
7.04,561.0
7.05,556.0
7.0600000000000005,421.0
7.07,600.0
7.08,1024.0
7.09,604.0
7.1000000000000005,542.0
7.11,579.0
7.12,567.0
7.13,572.0
7.140000000000001,576.0
7.15,578.0
7.16,579.0
7.17,581.0
7.18,588.0
7.19,590.0
7.2,593.0
7.21,596.0
7.22,605.0
7.23,613.0
7.24,624.0
7.25,633.0
7.26,648.0
7.2700000000000005,655.0
7.28,662.0
7.29,667.0
7.3,666.0
7.3100000000000005,644.0
7.32,609.0
7.33,580.0
7.34,562.0
7.3500000000000005,555.0
7.36,554.0
7.37,556.0
7.38,555.0
7.390000000000001,556.0
7.4,556.0
7.41,557.0
7.42,556.0
7.43,554.0
7.44,556.0
7.45,554.0
7.46,555.0
7.47,553.0
7.48,552.0
7.49,555.0
7.5,559.0
7.51,562.0
7.5200000000000005,556.0
7.53,556.0
7.54,560.0
7.55,561.0
7.5600000000000005,556.0
7.57,555.0
7.58,555.0
7.59,550.0
7.6000000000000005,556.0
7.61,556.0
7.62,554.0
7.63,558.0
7.640000000000001,559.0
7.65,560.0
7.66,573.0
7.67,584.0
7.68,571.0
7.69,558.0
7.7,558.0
7.71,548.0
7.72,555.0
7.73,554.0
7.74,553.0
7.75,560.0
7.76,513.0
7.7700000000000005,394.0
7.78,848.0
7.79,906.0
7.8,528.0
7.8100000000000005,559.0
7.82,561.0
7.83,557.0
7.84,556.0
7.8500000000000005,566.0
7.86,566.0
7.87,555.0
7.88,567.0
7.890000000000001,573.0
7.9,567.0
7.91,572.0
7.92,586.0
7.930000000000001,585.0
7.94,593.0
7.95,608.0
7.96,617.0
7.97,627.0
7.98,634.0
7.99,641.0
8.0,646.0
8.01,643.0
8.02,627.0
8.03,598.0
8.040000000000001,572.0
8.05,544.0
8.06,538.0
8.07,534.0
8.08,524.0
8.09,531.0
8.1,525.0
8.11,524.0
8.120000000000001,531.0
8.13,533.0
8.14,528.0
8.15,534.0
8.16,533.0
8.17,534.0
8.18,533.0
8.19,541.0
8.2,535.0
8.21,537.0
8.22,545.0
8.23,552.0
8.24,552.0
8.25,572.0
8.26,572.0
8.27,555.0
8.28,543.0
8.290000000000001,543.0
8.3,536.0
8.31,538.0
8.32,542.0
8.33,541.0
8.34,541.0
8.35,535.0
8.36,404.0
8.370000000000001,556.0
8.38,981.0
8.39,598.0
8.4,535.0
8.41,554.0
8.42,547.0
8.43,552.0
8.44,555.0
8.45,554.0
8.46,559.0
8.47,561.0
8.48,562.0
8.49,567.0
8.5,569.0
8.51,572.0
8.52,580.0
8.53,590.0
8.540000000000001,600.0
8.55,614.0
8.56,624.0
8.57,631.0
8.58,640.0
8.59,646.0
8.6,646.0
8.61,624.0
8.620000000000001,594.0
8.63,568.0
8.64,547.0
8.65,538.0
8.66,535.0
8.67,532.0
8.68,532.0
8.69,534.0
8.700000000000001,534.0
8.71,532.0
8.72,533.0
8.73,536.0
8.74,535.0
8.75,536.0
8.76,542.0
8.77,541.0
8.78,544.0
8.790000000000001,544.0
8.8,546.0
8.81,546.0
8.82,547.0
8.83,552.0
8.84,552.0
8.85,550.0
8.86,552.0
8.870000000000001,550.0
8.88,552.0
8.89,553.0
8.9,555.0
8.91,562.0
8.92,569.0
8.93,594.0
8.94,593.0
8.950000000000001,578.0
8.96,555.0
8.97,553.0
8.98,546.0
8.99,554.0
9.0,547.0
9.01,552.0
9.02,552.0
9.03,461.0
9.040000000000001,449.0
9.05,982.0
9.06,768.0
9.07,509.0
9.08,577.0
9.09,556.0
9.1,559.0
9.11,560.0
9.120000000000001,559.0
9.13,559.0
9.14,560.0
9.15,558.0
9.16,562.0
9.17,567.0
9.18,566.0
9.19,577.0
9.200000000000001,577.0
9.21,593.0
9.22,606.0
9.23,612.0
9.24,620.0
9.25,637.0
9.26,645.0
9.27,644.0
9.28,643.0
9.290000000000001,627.0
9.3,596.0
9.31,566.0
9.32,554.0
9.33,545.0
9.34,541.0
9.35,544.0
9.36,543.0
9.370000000000001,535.0
9.38,542.0
9.39,537.0
9.4,542.0
9.41,545.0
9.42,546.0
9.43,543.0
9.44,553.0
9.450000000000001,554.0
9.46,555.0
9.47,554.0
9.48,564.0
9.49,559.0
9.5,568.0
9.51,562.0
9.52,562.0
9.53,567.0
9.540000000000001,577.0
9.55,579.0
9.56,591.0
9.57,594.0
9.58,579.0
9.59,562.0
9.6,559.0
9.61,554.0
9.620000000000001,541.0
9.63,544.0
9.64,550.0
9.65,545.0
9.66,511.0
9.67,402.0
9.68,812.0
9.69,871.0
9.700000000000001,553.0
9.71,560.0
9.72,565.0
9.73,565.0
9.74,562.0
9.75,569.0
9.76,572.0
9.77,571.0
9.78,574.0
9.790000000000001,569.0
9.8,573.0
9.81,581.0
9.82,590.0
9.83,595.0
9.84,608.0
9.85,618.0
9.86,633.0
9.870000000000001,642.0
9.88,652.0
9.89,662.0
9.9,670.0
9.91,662.0
9.92,642.0
9.93,615.0
9.94,586.0
9.950000000000001,572.0
9.96,562.0
9.97,559.0
9.98,559.0
9.99,556.0
