Time,ADC
0.0,705.0
0.01,592.0
0.02,489.0
0.03,504.0
0.04,535.0
0.05,520.0
0.06,545.0
0.07,520.0
0.08,550.0
0.09,530.0
0.1,552.0
0.11,528.0
0.12,553.0
0.13,526.0
0.14,562.0
0.15,536.0
0.16,560.0
0.17,535.0
0.18,577.0
0.19,540.0
0.2,574.0
0.21,549.0
0.22,580.0
0.23,542.0
0.24,580.0
0.25,536.0
0.26,567.0
0.27,523.0
0.28,549.0
0.29,510.0
0.3,546.0
0.31,504.0
0.32,545.0
0.33,502.0
0.34,543.0
0.35000000000000003,502.0
0.36,553.0
0.37,504.0
0.38,546.0
0.39,505.0
0.4,545.0
0.41000000000000003,509.0
0.42,550.0
0.43,509.0
0.44,552.0
0.45,508.0
0.46,542.0
0.47000000000000003,502.0
0.48,554.0
0.49,508.0
0.5,549.0
0.51,508.0
0.52,554.0
0.53,507.0
0.54,554.0
0.55,512.0
0.56,562.0
0.5700000000000001,524.0
0.58,570.0
0.59,514.0
0.6,556.0
0.61,511.0
0.62,554.0
0.63,499.0
0.64,549.0
0.65,502.0
0.66,547.0
0.67,495.0
0.68,544.0
0.6900000000000001,500.0
0.7000000000000001,540.0
0.71,483.0
0.72,586.0
0.73,665.0
0.74,636.0
0.75,460.0
0.76,526.0
0.77,493.0
0.78,535.0
0.79,507.0
0.8,543.0
0.81,509.0
0.8200000000000001,552.0
0.8300000000000001,512.0
0.84,550.0
0.85,516.0
0.86,552.0
0.87,519.0
0.88,555.0
0.89,525.0
0.9,556.0
0.91,530.0
0.92,561.0
0.93,534.0
0.9400000000000001,565.0
0.9500000000000001,535.0
0.96,566.0
0.97,536.0
0.98,554.0
0.99,524.0
1.0,541.0
1.01,511.0
1.02,528.0
1.03,507.0
1.04,524.0
1.05,499.0
1.06,524.0
1.07,508.0
1.08,526.0
1.09,506.0
1.1,524.0
1.11,508.0
1.12,526.0
1.1300000000000001,513.0
1.1400000000000001,530.0
1.1500000000000001,513.0
1.16,525.0
1.17,514.0
1.18,525.0
1.19,513.0
1.2,521.0
1.21,516.0
1.22,520.0
1.23,516.0
1.24,523.0
1.25,517.0
1.26,523.0
1.27,518.0
1.28,528.0
1.29,533.0
1.3,537.0
1.31,542.0
1.32,532.0
1.33,532.0
1.34,521.0
1.35,523.0
1.36,519.0
1.37,522.0
1.3800000000000001,513.0
1.3900000000000001,522.0
1.4000000000000001,512.0
1.41,520.0
1.42,512.0
1.43,521.0
1.44,493.0
1.45,561.0
1.46,676.0
1.47,613.0
1.48,476.0
1.49,506.0
1.5,502.0
1.51,523.0
1.52,518.0
1.53,531.0
1.54,514.0
1.55,541.0
1.56,519.0
1.57,542.0
1.58,525.0
1.59,548.0
1.6,524.0
1.61,554.0
1.62,530.0
1.6300000000000001,562.0
1.6400000000000001,532.0
1.6500000000000001,567.0
1.6600000000000001,535.0
1.67,568.0
1.68,541.0
1.69,577.0
1.7,536.0
1.71,566.0
1.72,525.0
1.73,555.0
1.74,508.0
1.75,537.0
1.76,498.0
1.77,537.0
1.78,496.0
1.79,534.0
1.8,497.0
1.81,537.0
1.82,499.0
1.83,541.0
1.84,498.0
1.85,542.0
1.86,501.0
1.87,543.0
1.8800000000000001,499.0
1.8900000000000001,544.0
1.9000000000000001,500.0
1.9100000000000001,542.0
1.92,501.0
1.93,545.0
1.94,501.0
1.95,544.0
1.96,501.0
1.97,542.0
1.98,501.0
1.99,545.0
2.0,504.0
2.0100000000000002,542.0
2.02,502.0
2.0300000000000002,546.0
2.04,509.0
2.05,561.0
2.06,519.0
2.07,566.0
2.08,516.0
2.09,554.0
2.1,509.0
2.11,553.0
2.12,502.0
2.13,550.0
2.14,506.0
2.15,552.0
2.16,501.0
2.17,552.0
2.18,508.0
2.19,541.0
2.2,489.0
2.21,653.0
2.22,664.0
2.23,586.0
2.24,466.0
2.25,542.0
2.2600000000000002,498.0
2.27,555.0
2.2800000000000002,514.0
2.29,560.0
2.3000000000000003,523.0
2.31,561.0
2.32,524.0
2.33,560.0
2.34,526.0
2.35,561.0
2.36,535.0
2.37,568.0
2.38,537.0
2.39,571.0
2.4,543.0
2.41,580.0
2.42,549.0
2.43,584.0
2.44,553.0
2.45,586.0
2.46,553.0
2.47,573.0
2.48,542.0
2.49,559.0
2.5,528.0
2.5100000000000002,545.0
2.52,522.0
2.5300000000000002,543.0
2.54,512.0
2.5500000000000003,541.0
2.56,522.0
2.57,535.0
2.58,523.0
2.59,544.0
2.6,523.0
2.61,543.0
2.62,526.0
2.63,542.0
2.64,523.0
2.65,542.0
2.66,535.0
2.67,540.0
2.68,525.0
2.69,541.0
2.7,526.0
2.71,540.0
2.72,531.0
2.73,537.0
2.74,533.0
2.75,540.0
2.7600000000000002,532.0
2.77,535.0
2.7800000000000002,532.0
2.79,541.0
2.8000000000000003,553.0
2.81,550.0
2.82,558.0
2.83,542.0
2.84,541.0
2.85,536.0
2.86,536.0
2.87,531.0
2.88,535.0
2.89,528.0
2.9,536.0
2.91,522.0
2.92,531.0
2.93,525.0
2.94,528.0
2.95,505.0
2.96,625.0
2.97,681.0
2.98,588.0
2.99,482.0
3.0,525.0
3.0100000000000002,511.0
3.02,537.0
3.0300000000000002,523.0
3.04,538.0
3.0500000000000003,524.0
3.06,546.0
3.0700000000000003,522.0
3.08,553.0
3.09,530.0
3.1,556.0
3.11,530.0
3.12,560.0
3.13,535.0
3.14,567.0
3.15,540.0
3.16,572.0
3.17,542.0
3.18,577.0
3.19,548.0
3.2,578.0
3.21,542.0
3.22,568.0
3.23,529.0
3.24,553.0
3.25,514.0
3.2600000000000002,537.0
3.27,507.0
3.2800000000000002,534.0
3.29,497.0
3.3000000000000003,535.0
3.31,500.0
3.3200000000000003,541.0
3.33,501.0
3.34,540.0
3.35,505.0
3.36,543.0
3.37,504.0
3.38,543.0
3.39,504.0
3.4,546.0
3.41,506.0
3.42,542.0
3.43,506.0
3.44,546.0
3.45,497.0
3.46,545.0
3.47,501.0
3.48,542.0
3.49,501.0
3.5,544.0
3.5100000000000002,501.0
3.52,553.0
3.5300000000000002,516.0
3.54,565.0
3.5500000000000003,513.0
3.56,548.0
3.5700000000000003,498.0
3.58,545.0
3.59,497.0
3.6,541.0
3.61,494.0
3.62,536.0
3.63,496.0
3.64,537.0
3.65,489.0
3.66,541.0
3.67,478.0
3.68,533.0
3.69,645.0
3.7,673.0
3.71,481.0
3.72,507.0
3.73,486.0
3.74,525.0
3.75,498.0
3.7600000000000002,536.0
3.77,505.0
3.7800000000000002,541.0
3.79,511.0
3.8000000000000003,545.0
3.81,506.0
3.8200000000000003,553.0
3.83,516.0
3.84,552.0
3.85,518.0
3.86,556.0
3.87,523.0
3.88,559.0
3.89,528.0
3.9,560.0
3.91,533.0
3.92,558.0
3.93,531.0
3.94,552.0
3.95,520.0
3.96,541.0
3.97,504.0
3.98,525.0
3.99,495.0
4.0,518.0
4.01,492.0
4.0200000000000005,516.0
4.03,493.0
4.04,518.0
4.05,495.0
4.0600000000000005,520.0
4.07,498.0
4.08,518.0
4.09,499.0
4.1,519.0
4.11,504.0
4.12,521.0
4.13,500.0
4.14,519.0
4.15,501.0
4.16,513.0
4.17,505.0
4.18,517.0
4.19,505.0
4.2,516.0
4.21,506.0
4.22,514.0
4.23,507.0
4.24,518.0
4.25,512.0
4.26,516.0
4.2700000000000005,517.0
4.28,532.0
4.29,532.0
4.3,535.0
4.3100000000000005,534.0
4.32,529.0
4.33,522.0
4.34,517.0
4.3500000000000005,518.0
4.36,517.0
4.37,519.0
4.38,514.0
4.39,517.0
4.4,512.0
4.41,519.0
4.42,516.0
4.43,511.0
4.44,499.0
4.45,657.0
4.46,652.0
4.47,521.0
4.48,474.0
4.49,517.0
4.5,502.0
4.51,531.0
4.5200000000000005,510.0
4.53,532.0
4.54,514.0
4.55,542.0
4.5600000000000005,517.0
4.57,535.0
4.58,525.0
4.59,541.0
4.6000000000000005,533.0
4.61,546.0
4.62,537.0
4.63,555.0
4.64,542.0
4.65,560.0
4.66,543.0
4.67,561.0
4.68,545.0
4.69,566.0
4.7,541.0
4.71,554.0
4.72,526.0
4.73,540.0
4.74,508.0
4.75,530.0
4.76,498.0
4.7700000000000005,526.0
4.78,498.0
4.79,531.0
4.8,499.0
4.8100000000000005,531.0
4.82,499.0
4.83,536.0
4.84,505.0
4.8500000000000005,535.0
4.86,504.0
4.87,542.0
4.88,504.0
4.89,537.0
4.9,506.0
4.91,538.0
4.92,498.0
4.93,543.0
4.94,504.0
4.95,543.0
4.96,505.0
4.97,546.0
4.98,506.0
4.99,548.0
5.0,502.0
5.01,552.0
5.0200000000000005,508.0
5.03,546.0
5.04,509.0
5.05,552.0
5.0600000000000005,513.0
5.07,567.0
5.08,518.0
5.09,571.0
5.1000000000000005,523.0
5.11,557.0
5.12,509.0
5.13,557.0
5.14,507.0
5.15,554.0
5.16,506.0
5.17,545.0
5.18,506.0
5.19,546.0
5.2,508.0
5.21,553.0
5.22,487.0
5.23,571.0
5.24,667.0
5.25,662.0
5.26,474.0
5.2700000000000005,523.0
5.28,499.0
5.29,545.0
5.3,511.0
5.3100000000000005,552.0
5.32,514.0
5.33,558.0
5.34,520.0
5.3500000000000005,564.0
5.36,523.0
5.37,562.0
5.38,522.0
5.39,569.0
5.4,533.0
5.41,571.0
5.42,537.0
5.43,580.0
5.44,543.0
5.45,580.0
5.46,542.0
5.47,578.0
5.48,546.0
5.49,577.0
5.5,537.0
5.51,556.0
5.5200000000000005,523.0
5.53,547.0
5.54,508.0
5.55,543.0
5.5600000000000005,511.0
5.57,542.0
5.58,512.0
5.59,541.0
5.6000000000000005,507.0
5.61,540.0
5.62,517.0
5.63,543.0
5.64,516.0
5.65,544.0
5.66,519.0
5.67,536.0
5.68,521.0
5.69,546.0
5.7,518.0
5.71,541.0
5.72,523.0
5.73,543.0
5.74,521.0
5.75,542.0
5.76,523.0
5.7700000000000005,540.0
5.78,522.0
5.79,534.0
5.8,524.0
5.8100000000000005,542.0
5.82,533.0
5.83,555.0
5.84,547.0
5.8500000000000005,556.0
5.86,534.0
5.87,534.0
5.88,528.0
5.89,535.0
5.9,528.0
5.91,532.0
5.92,525.0
5.93,528.0
5.94,526.0
5.95,525.0
5.96,529.0
5.97,519.0
5.98,506.0
5.99,640.0
6.0,685.0
6.01,552.0
6.0200000000000005,493.0
6.03,516.0
6.04,518.0
6.05,526.0
6.0600000000000005,535.0
6.07,533.0
6.08,543.0
6.09,529.0
6.1000000000000005,547.0
6.11,528.0
6.12,553.0
6.13,534.0
6.140000000000001,556.0
6.15,535.0
6.16,560.0
6.17,543.0
6.18,564.0
6.19,545.0
6.2,572.0
6.21,544.0
6.22,573.0
6.23,547.0
6.24,570.0
6.25,534.0
6.26,554.0
6.2700000000000005,516.0
6.28,540.0
6.29,499.0
6.3,533.0
6.3100000000000005,497.0
6.32,534.0
6.33,499.0
6.34,535.0
6.3500000000000005,498.0
6.36,537.0
6.37,499.0
6.38,542.0
6.390000000000001,499.0
6.4,545.0
6.41,502.0
6.42,543.0
6.43,506.0
6.44,542.0
6.45,505.0
6.46,545.0
6.47,501.0
6.48,542.0
6.49,499.0
6.5,543.0
6.51,502.0
6.5200000000000005,542.0
6.53,498.0
6.54,544.0
6.55,500.0
6.5600000000000005,542.0
6.57,505.0
6.58,555.0
6.59,519.0
6.6000000000000005,564.0
6.61,524.0
6.62,556.0
6.63,513.0
6.640000000000001,545.0
6.65,505.0
6.66,546.0
6.67,500.0
6.68,545.0
6.69,498.0
6.7,545.0
6.71,498.0
6.72,544.0
6.73,497.0
6.74,522.0
6.75,580.0
6.76,705.0
6.7700000000000005,554.0
6.78,502.0
6.79,492.0
6.8,532.0
6.8100000000000005,507.0
6.82,547.0
6.83,508.0
6.84,550.0
6.8500000000000005,513.0
6.86,553.0
6.87,516.0
6.88,555.0
6.890000000000001,523.0
6.9,558.0
6.91,526.0
6.92,558.0
6.93,528.0
6.94,565.0
6.95,533.0
6.96,568.0
6.97,541.0
6.98,570.0
6.99,541.0
7.0,571.0
7.01,533.0
7.0200000000000005,556.0
7.03,522.0
7.04,540.0
7.05,507.0
7.0600000000000005,530.0
7.07,505.0
7.08,524.0
7.09,502.0
7.1000000000000005,525.0
7.11,507.0
7.12,528.0
7.13,511.0
7.140000000000001,531.0
7.15,509.0
7.16,530.0
7.17,512.0
7.18,531.0
7.19,512.0
7.2,530.0
7.21,516.0
7.22,531.0
7.23,517.0
7.24,528.0
7.25,514.0
7.26,526.0
7.2700000000000005,516.0
7.28,528.0
7.29,518.0
7.3,526.0
7.3100000000000005,523.0
7.32,522.0
7.33,520.0
7.34,528.0
7.3500000000000005,531.0
7.36,543.0
7.37,542.0
7.38,546.0
7.390000000000001,537.0
7.4,534.0
7.41,532.0
7.42,530.0
7.43,532.0
7.44,524.0
7.45,531.0
7.46,525.0
7.47,531.0
7.48,518.0
7.49,534.0
7.5,516.0
7.51,517.0
7.5200000000000005,552.0
7.53,701.0
7.54,608.0
7.55,495.0
7.5600000000000005,499.0
7.57,524.0
7.58,518.0
7.59,540.0
7.6000000000000005,522.0
7.61,543.0
7.62,523.0
7.63,547.0
7.640000000000001,530.0
7.65,552.0
7.66,536.0
7.67,554.0
7.68,541.0
7.69,562.0
7.7,537.0
7.71,566.0
7.72,548.0
7.73,571.0
7.74,545.0
7.75,578.0
7.76,554.0
7.7700000000000005,577.0
7.78,547.0
7.79,569.0
7.8,532.0
7.8100000000000005,549.0
7.82,512.0
7.83,537.0
7.84,510.0
7.8500000000000005,545.0
7.86,507.0
7.87,544.0
7.88,508.0
7.890000000000001,545.0
7.9,505.0
7.91,550.0
7.92,512.0
7.930000000000001,547.0
7.94,509.0
7.95,552.0
7.96,513.0
7.97,552.0
7.98,513.0
7.99,554.0
8.0,508.0
8.01,552.0
8.02,513.0
8.03,556.0
8.040000000000001,512.0
8.05,554.0
8.06,514.0
8.07,553.0
8.08,512.0
8.09,559.0
8.1,509.0
8.11,556.0
8.120000000000001,522.0
8.13,574.0
8.14,531.0
8.15,574.0
8.16,522.0
8.17,560.0
8.18,514.0
8.19,555.0
8.2,516.0
8.21,556.0
8.22,513.0
8.23,556.0
8.24,514.0
8.25,554.0
8.26,513.0
8.27,545.0
8.28,499.0
8.290000000000001,681.0
8.3,666.0
8.31,570.0
8.32,466.0
8.33,543.0
8.34,507.0
8.35,556.0
8.36,519.0
8.370000000000001,554.0
8.38,518.0
8.39,556.0
8.4,530.0
8.41,556.0
8.42,525.0
8.43,561.0
8.44,532.0
8.45,566.0
8.46,537.0
8.47,566.0
8.48,537.0
8.49,576.0
8.5,553.0
8.51,577.0
8.52,546.0
8.53,576.0
8.540000000000001,548.0
8.55,572.0
8.56,533.0
8.57,554.0
8.58,519.0
8.59,541.0
8.6,514.0
8.61,528.0
8.620000000000001,511.0
8.63,534.0
8.64,518.0
8.65,535.0
8.66,512.0
8.67,540.0
8.68,522.0
8.69,536.0
8.700000000000001,519.0
8.71,533.0
8.72,530.0
8.73,541.0
8.74,526.0
8.75,542.0
8.76,526.0
8.77,536.0
8.78,528.0
8.790000000000001,533.0
8.8,522.0
8.81,542.0
8.82,524.0
8.83,552.0
8.84,541.0
8.85,558.0
8.86,548.0
8.870000000000001,549.0
8.88,529.0
8.89,545.0
8.9,526.0
8.91,537.0
8.92,524.0
8.93,537.0
8.94,520.0
8.950000000000001,526.0
8.96,520.0
8.97,526.0
8.98,516.0
8.99,507.0
9.0,606.0
9.01,691.0
9.02,577.0
9.03,489.0
9.040000000000001,509.0
9.05,516.0
9.06,525.0
9.07,532.0
9.08,533.0
9.09,533.0
9.1,541.0
9.11,535.0
9.120000000000001,542.0
9.13,537.0
9.14,547.0
9.15,535.0
9.16,553.0
9.17,538.0
9.18,558.0
9.19,545.0
9.200000000000001,561.0
9.21,548.0
9.22,567.0
9.23,550.0
9.24,568.0
9.25,545.0
9.26,558.0
9.27,523.0
9.28,538.0
9.290000000000001,510.0
9.3,528.0
9.31,502.0
9.32,528.0
9.33,500.0
9.34,525.0
9.35,498.0
9.36,528.0
9.370000000000001,499.0
9.38,532.0
9.39,500.0
9.4,534.0
9.41,499.0
9.42,535.0
9.43,502.0
9.44,535.0
9.450000000000001,499.0
9.46,535.0
9.47,495.0
9.48,540.0
9.49,500.0
9.5,537.0
9.51,497.0
9.52,537.0
9.53,497.0
9.540000000000001,541.0
9.55,506.0
9.56,555.0
9.57,513.0
9.58,559.0
9.59,512.0
9.6,548.0
9.61,499.0
9.620000000000001,541.0
9.63,500.0
9.64,541.0
9.65,497.0
9.66,540.0
9.67,494.0
9.68,536.0
9.69,495.0
9.700000000000001,535.0
9.71,476.0
9.72,574.0
9.73,662.0
9.74,629.0
9.75,457.0
9.76,516.0
9.77,487.0
9.78,535.0
9.790000000000001,502.0
9.8,543.0
9.81,507.0
9.82,550.0
9.83,506.0
9.84,554.0
9.85,513.0
9.86,555.0
9.870000000000001,516.0
9.88,559.0
9.89,520.0
9.9,560.0
9.91,525.0
9.92,566.0
9.93,533.0
9.94,568.0
9.950000000000001,541.0
9.96,569.0
9.97,534.0
9.98,567.0
9.99,523.0
