Time,ADC
0.0,543.0
0.01,382.0
0.02,429.0
0.03,416.0
0.04,454.0
0.05,433.0
0.06,457.0
0.07,436.0
0.08,465.0
0.09,441.0
0.1,468.0
0.11,450.0
0.12,470.0
0.13,452.0
0.14,474.0
0.15,460.0
0.16,480.0
0.17,466.0
0.18,481.0
0.19,475.0
0.2,483.0
0.21,478.0
0.22,486.0
0.23,480.0
0.24,477.0
0.25,480.0
0.26,466.0
0.27,469.0
0.28,456.0
0.29,463.0
0.3,452.0
0.31,465.0
0.32,449.0
0.33,469.0
0.34,454.0
0.35000000000000003,474.0
0.36,456.0
0.37,476.0
0.38,459.0
0.39,481.0
0.4,457.0
0.41000000000000003,485.0
0.42,458.0
0.43,488.0
0.44,459.0
0.45,492.0
0.46,460.0
0.47000000000000003,495.0
0.48,464.0
0.49,501.0
0.5,471.0
0.51,522.0
0.52,485.0
0.53,518.0
0.54,469.0
0.55,507.0
0.56,461.0
0.5700000000000001,504.0
0.58,459.0
0.59,506.0
0.6,461.0
0.61,508.0
0.62,461.0
0.63,509.0
0.64,460.0
0.65,502.0
0.66,440.0
0.67,613.0
0.68,605.0
0.6900000000000001,542.0
0.7000000000000001,414.0
0.71,512.0
0.72,459.0
0.73,525.0
0.74,468.0
0.75,528.0
0.76,471.0
0.77,533.0
0.78,475.0
0.79,534.0
0.8,483.0
0.81,546.0
0.8200000000000001,486.0
0.8300000000000001,545.0
0.84,494.0
0.85,548.0
0.86,498.0
0.87,560.0
0.88,498.0
0.89,559.0
0.9,504.0
0.91,559.0
0.92,499.0
0.93,554.0
0.9400000000000001,487.0
0.9500000000000001,545.0
0.96,483.0
0.97,541.0
0.98,480.0
0.99,536.0
1.0,480.0
1.01,534.0
1.02,484.0
1.03,536.0
1.04,485.0
1.05,538.0
1.06,489.0
1.07,535.0
1.08,487.0
1.09,534.0
1.1,488.0
1.11,541.0
1.12,487.0
1.1300000000000001,534.0
1.1400000000000001,495.0
1.1500000000000001,534.0
1.16,488.0
1.17,533.0
1.18,494.0
1.19,532.0
1.2,507.0
1.21,546.0
1.22,518.0
1.23,558.0
1.24,514.0
1.25,547.0
1.26,511.0
1.27,541.0
1.28,510.0
1.29,537.0
1.3,508.0
1.31,531.0
1.32,508.0
1.33,535.0
1.34,508.0
1.35,528.0
1.36,499.0
1.37,508.0
1.3800000000000001,602.0
1.3900000000000001,685.0
1.4000000000000001,549.0
1.41,488.0
1.42,505.0
1.43,522.0
1.44,517.0
1.45,530.0
1.46,530.0
1.47,537.0
1.48,532.0
1.49,533.0
1.5,535.0
1.51,537.0
1.52,540.0
1.53,535.0
1.54,542.0
1.55,548.0
1.56,553.0
1.57,545.0
1.58,558.0
1.59,545.0
1.6,555.0
1.61,550.0
1.62,564.0
1.6300000000000001,545.0
1.6400000000000001,561.0
1.6500000000000001,531.0
1.6600000000000001,555.0
1.67,521.0
1.68,546.0
1.69,513.0
1.7,541.0
1.71,511.0
1.72,543.0
1.73,507.0
1.74,543.0
1.75,509.0
1.76,542.0
1.77,509.0
1.78,544.0
1.79,507.0
1.8,544.0
1.81,504.0
1.82,544.0
1.83,507.0
1.84,545.0
1.85,498.0
1.86,541.0
1.87,501.0
1.8800000000000001,554.0
1.8900000000000001,512.0
1.9000000000000001,562.0
1.9100000000000001,513.0
1.92,553.0
1.93,498.0
1.94,544.0
1.95,493.0
1.96,538.0
1.97,485.0
1.98,537.0
1.99,484.0
2.0,537.0
2.0100000000000002,484.0
2.02,536.0
2.0300000000000002,485.0
2.04,520.0
2.05,494.0
2.06,693.0
2.07,589.0
2.08,513.0
2.09,465.0
2.1,537.0
2.11,480.0
2.12,550.0
2.13,488.0
2.14,552.0
2.15,495.0
2.16,556.0
2.17,495.0
2.18,556.0
2.19,498.0
2.2,559.0
2.21,504.0
2.22,562.0
2.23,506.0
2.24,569.0
2.25,509.0
2.2600000000000002,566.0
2.27,508.0
2.2800000000000002,562.0
2.29,508.0
2.3000000000000003,566.0
2.31,499.0
2.32,545.0
2.33,485.0
2.34,534.0
2.35,471.0
2.36,521.0
2.37,468.0
2.38,520.0
2.39,469.0
2.4,518.0
2.41,469.0
2.42,516.0
2.43,469.0
2.44,513.0
2.45,471.0
2.46,516.0
2.47,469.0
2.48,519.0
2.49,475.0
2.5,516.0
2.5100000000000002,471.0
2.52,513.0
2.5300000000000002,480.0
2.54,513.0
2.5500000000000003,480.0
2.56,514.0
2.57,483.0
2.58,512.0
2.59,494.0
2.6,522.0
2.61,509.0
2.62,532.0
2.63,510.0
2.64,517.0
2.65,501.0
2.66,512.0
2.67,497.0
2.68,508.0
2.69,498.0
2.7,506.0
2.71,495.0
2.72,502.0
2.73,501.0
2.74,506.0
2.75,496.0
2.7600000000000002,484.0
2.77,591.0
2.7800000000000002,645.0
2.79,533.0
2.8000000000000003,460.0
2.81,487.0
2.82,492.0
2.83,511.0
2.84,499.0
2.85,509.0
2.86,505.0
2.87,514.0
2.88,500.0
2.89,517.0
2.9,502.0
2.91,518.0
2.92,505.0
2.93,525.0
2.94,502.0
2.95,528.0
2.96,508.0
2.97,537.0
2.98,510.0
2.99,541.0
3.0,511.0
3.0100000000000002,536.0
3.02,502.0
3.0300000000000002,537.0
3.04,495.0
3.0500000000000003,530.0
3.06,483.0
3.0700000000000003,522.0
3.08,480.0
3.09,518.0
3.1,471.0
3.11,516.0
3.12,474.0
3.13,525.0
3.14,478.0
3.15,528.0
3.16,481.0
3.17,531.0
3.18,483.0
3.19,532.0
3.2,482.0
3.21,535.0
3.22,481.0
3.23,538.0
3.24,481.0
3.25,536.0
3.2600000000000002,482.0
3.27,534.0
3.2800000000000002,485.0
3.29,545.0
3.3000000000000003,481.0
3.31,544.0
3.3200000000000003,486.0
3.33,547.0
3.34,490.0
3.35,550.0
3.36,496.0
3.37,567.0
3.38,514.0
3.39,573.0
3.4,519.0
3.41,562.0
3.42,494.0
3.43,553.0
3.44,496.0
3.45,558.0
3.46,495.0
3.47,559.0
3.48,493.0
3.49,550.0
3.5,489.0
3.5100000000000002,552.0
3.52,488.0
3.5300000000000002,538.0
3.54,566.0
3.5500000000000003,721.0
3.56,557.0
3.5700000000000003,516.0
3.58,487.0
3.59,548.0
3.6,495.0
3.61,565.0
3.62,511.0
3.63,559.0
3.64,517.0
3.65,566.0
3.66,519.0
3.67,577.0
3.68,517.0
3.69,566.0
3.7,524.0
3.71,574.0
3.72,533.0
3.73,579.0
3.74,546.0
3.75,577.0
3.7600000000000002,544.0
3.77,579.0
3.7800000000000002,543.0
3.79,585.0
3.8000000000000003,546.0
3.81,570.0
3.8200000000000003,534.0
3.83,555.0
3.84,521.0
3.85,554.0
3.86,522.0
3.87,560.0
3.88,517.0
3.89,550.0
3.9,528.0
3.91,546.0
3.92,531.0
3.93,553.0
3.94,535.0
3.95,549.0
3.96,524.0
3.97,552.0
3.98,537.0
3.99,545.0
4.0,535.0
4.01,537.0
4.0200000000000005,532.0
4.03,536.0
4.04,531.0
4.05,535.0
4.0600000000000005,530.0
4.07,537.0
4.08,541.0
4.09,543.0
4.1,560.0
4.11,545.0
4.12,546.0
4.13,533.0
4.14,536.0
4.15,521.0
4.16,535.0
4.17,513.0
4.18,536.0
4.19,512.0
4.2,528.0
4.21,507.0
4.22,531.0
4.23,505.0
4.24,514.0
4.25,484.0
4.26,663.0
4.2700000000000005,644.0
4.28,537.0
4.29,469.0
4.3,524.0
4.3100000000000005,489.0
4.32,533.0
4.33,498.0
4.34,533.0
4.3500000000000005,501.0
4.36,544.0
4.37,505.0
4.38,549.0
4.39,501.0
4.4,550.0
4.41,508.0
4.42,556.0
4.43,505.0
4.44,562.0
4.45,513.0
4.46,562.0
4.47,511.0
4.48,567.0
4.49,509.0
4.5,565.0
4.51,507.0
4.5200000000000005,556.0
4.53,495.0
4.54,544.0
4.55,480.0
4.5600000000000005,533.0
4.57,471.0
4.58,534.0
4.59,470.0
4.6000000000000005,533.0
4.61,473.0
4.62,534.0
4.63,471.0
4.64,531.0
4.65,475.0
4.66,533.0
4.67,475.0
4.68,534.0
4.69,474.0
4.7,531.0
4.71,475.0
4.72,532.0
4.73,473.0
4.74,529.0
4.75,473.0
4.76,525.0
4.7700000000000005,468.0
4.78,531.0
4.79,480.0
4.8,544.0
4.8100000000000005,495.0
4.82,545.0
4.83,478.0
4.84,532.0
4.8500000000000005,474.0
4.86,530.0
4.87,473.0
4.88,523.0
4.89,466.0
4.9,518.0
4.91,469.0
4.92,514.0
4.93,464.0
4.94,505.0
4.95,440.0
4.96,596.0
4.97,626.0
4.98,559.0
4.99,427.0
5.0,504.0
5.01,461.0
5.0200000000000005,509.0
5.03,477.0
5.04,512.0
5.05,471.0
5.0600000000000005,519.0
5.07,480.0
5.08,520.0
5.09,487.0
5.1000000000000005,516.0
5.11,485.0
5.12,518.0
5.13,502.0
5.14,521.0
5.15,511.0
5.16,521.0
5.17,499.0
5.18,531.0
5.19,507.0
5.2,519.0
5.21,508.0
5.22,512.0
5.23,497.0
5.24,502.0
5.25,481.0
5.26,493.0
5.2700000000000005,480.0
5.28,485.0
5.29,485.0
5.3,487.0
5.3100000000000005,481.0
5.32,487.0
5.33,481.0
5.34,478.0
5.3500000000000005,492.0
5.36,473.0
5.37,484.0
5.38,483.0
5.39,481.0
5.4,480.0
5.41,494.0
5.42,475.0
5.43,489.0
5.44,470.0
5.45,488.0
5.46,474.0
5.47,493.0
5.48,470.0
5.49,488.0
5.5,468.0
5.51,492.0
5.5200000000000005,469.0
5.53,494.0
5.54,473.0
5.55,513.0
5.5600000000000005,481.0
5.57,520.0
5.58,470.0
5.59,496.0
5.6000000000000005,460.0
5.61,494.0
5.62,459.0
5.63,488.0
5.64,454.0
5.65,495.0
5.66,452.0
5.67,496.0
5.68,445.0
5.69,494.0
5.7,424.0
5.71,560.0
5.72,619.0
5.73,570.0
5.74,405.0
5.75,481.0
5.76,441.0
5.7700000000000005,502.0
5.78,449.0
5.79,507.0
5.8,456.0
5.8100000000000005,510.0
5.82,456.0
5.83,517.0
5.84,460.0
5.8500000000000005,521.0
5.86,463.0
5.87,519.0
5.88,468.0
5.89,526.0
5.9,478.0
5.91,532.0
5.92,474.0
5.93,535.0
5.94,481.0
5.95,535.0
5.96,475.0
5.97,532.0
5.98,469.0
5.99,520.0
6.0,452.0
6.01,509.0
6.0200000000000005,450.0
6.03,504.0
6.04,448.0
6.05,506.0
6.0600000000000005,448.0
6.07,507.0
6.08,448.0
6.09,505.0
6.1000000000000005,452.0
6.11,504.0
6.12,450.0
6.13,507.0
6.140000000000001,450.0
6.15,508.0
6.16,456.0
6.17,507.0
6.18,454.0
6.19,507.0
6.2,452.0
6.21,502.0
6.22,454.0
6.23,504.0
6.24,454.0
6.25,501.0
6.26,458.0
6.2700000000000005,504.0
6.28,456.0
6.29,509.0
6.3,470.0
6.3100000000000005,520.0
6.32,480.0
6.33,519.0
6.34,473.0
6.3500000000000005,506.0
6.36,466.0
6.37,505.0
6.38,464.0
6.390000000000001,498.0
6.4,462.0
6.41,495.0
6.42,461.0
6.43,496.0
6.44,466.0
6.45,489.0
6.46,449.0
6.47,588.0
6.48,619.0
6.49,535.0
6.5,433.0
6.51,493.0
6.5200000000000005,473.0
6.53,506.0
6.54,481.0
6.55,497.0
6.5600000000000005,487.0
6.57,509.0
6.58,495.0
6.59,508.0
6.6000000000000005,495.0
6.61,511.0
6.62,509.0
6.63,505.0
6.640000000000001,514.0
6.65,516.0
6.66,513.0
6.67,513.0
6.68,528.0
6.69,522.0
6.7,526.0
6.71,519.0
6.72,525.0
6.73,507.0
6.74,522.0
6.75,496.0
6.76,512.0
6.7700000000000005,484.0
6.78,508.0
6.79,486.0
6.8,507.0
6.8100000000000005,481.0
6.82,508.0
6.83,483.0
6.84,514.0
6.8500000000000005,480.0
6.86,513.0
6.87,487.0
6.88,513.0
6.890000000000001,478.0
6.9,519.0
6.91,485.0
6.92,512.0
6.93,475.0
6.94,520.0
6.95,478.0
6.96,516.0
6.97,477.0
6.98,522.0
6.99,481.0
7.0,523.0
7.01,478.0
7.0200000000000005,522.0
7.03,484.0
7.04,530.0
7.05,488.0
7.0600000000000005,538.0
7.07,492.0
7.08,545.0
7.09,497.0
7.1000000000000005,556.0
7.11,507.0
7.12,541.0
7.13,486.0
7.140000000000001,535.0
7.15,483.0
7.16,535.0
7.17,476.0
7.18,530.0
7.19,480.0
7.2,530.0
7.21,476.0
7.22,534.0
7.23,474.0
7.24,518.0
7.25,532.0
7.26,701.0
7.2700000000000005,552.0
7.28,501.0
7.29,465.0
7.3,528.0
7.3100000000000005,483.0
7.32,541.0
7.33,485.0
7.34,543.0
7.3500000000000005,489.0
7.36,546.0
7.37,495.0
7.38,550.0
7.390000000000001,497.0
7.4,548.0
7.41,496.0
7.42,552.0
7.43,508.0
7.44,554.0
7.45,508.0
7.46,558.0
7.47,507.0
7.48,559.0
7.49,512.0
7.5,558.0
7.51,508.0
7.5200000000000005,546.0
7.53,498.0
7.54,531.0
7.55,487.0
7.5600000000000005,526.0
7.57,485.0
7.58,523.0
7.59,486.0
7.6000000000000005,524.0
7.61,489.0
7.62,528.0
7.63,494.0
7.640000000000001,525.0
7.65,494.0
7.66,522.0
7.67,494.0
7.68,525.0
7.69,496.0
7.7,518.0
7.71,495.0
7.72,519.0
7.73,497.0
7.74,513.0
7.75,493.0
7.76,514.0
7.7700000000000005,498.0
7.78,511.0
7.79,498.0
7.8,518.0
7.8100000000000005,505.0
7.82,513.0
7.83,507.0
7.84,517.0
7.8500000000000005,513.0
7.86,524.0
7.87,526.0
7.88,540.0
7.890000000000001,535.0
7.9,521.0
7.91,518.0
7.92,513.0
7.930000000000001,516.0
7.94,516.0
7.95,512.0
7.96,507.0
7.97,514.0
7.98,506.0
7.99,513.0
8.0,505.0
8.01,512.0
8.02,480.0
8.03,628.0
8.040000000000001,648.0
8.05,549.0
8.06,454.0
8.07,518.0
8.08,486.0
8.09,532.0
8.1,498.0
8.11,531.0
8.120000000000001,501.0
8.13,536.0
8.14,499.0
8.15,543.0
8.16,506.0
8.17,546.0
8.18,510.0
8.19,547.0
8.2,513.0
8.21,555.0
8.22,514.0
8.23,561.0
8.24,517.0
8.25,555.0
8.26,512.0
8.27,561.0
8.28,523.0
8.290000000000001,560.0
8.3,508.0
8.31,554.0
8.32,499.0
8.33,546.0
8.34,494.0
8.35,545.0
8.36,498.0
8.370000000000001,541.0
8.38,494.0
8.39,554.0
8.4,497.0
8.41,552.0
8.42,507.0
8.43,552.0
8.44,495.0
8.45,556.0
8.46,497.0
8.47,554.0
8.48,493.0
8.49,552.0
8.5,495.0
8.51,550.0
8.52,495.0
8.53,553.0
8.540000000000001,493.0
8.55,550.0
8.56,489.0
8.57,553.0
8.58,494.0
8.59,550.0
8.6,502.0
8.61,548.0
8.620000000000001,513.0
8.63,572.0
8.64,509.0
8.65,556.0
8.66,499.0
8.67,547.0
8.68,494.0
8.69,549.0
8.700000000000001,488.0
8.71,544.0
8.72,493.0
8.73,541.0
8.74,495.0
8.75,541.0
8.76,485.0
8.77,516.0
8.78,574.0
8.790000000000001,700.0
8.8,544.0
8.81,496.0
8.82,484.0
8.83,526.0
8.84,497.0
8.85,541.0
8.86,496.0
8.870000000000001,537.0
8.88,499.0
8.89,541.0
8.9,507.0
8.91,542.0
8.92,513.0
8.93,544.0
8.94,522.0
8.950000000000001,546.0
8.96,524.0
8.97,555.0
8.98,529.0
8.99,552.0
9.0,532.0
9.01,554.0
9.02,533.0
9.03,553.0
9.040000000000001,526.0
9.05,538.0
9.06,518.0
9.07,521.0
9.08,506.0
9.09,517.0
9.1,501.0
9.11,511.0
9.120000000000001,498.0
9.13,508.0
9.14,498.0
9.15,508.0
9.16,498.0
9.17,501.0
9.18,501.0
9.19,501.0
9.200000000000001,504.0
9.21,499.0
9.22,505.0
9.23,500.0
9.24,506.0
9.25,497.0
9.26,507.0
9.27,497.0
9.28,508.0
9.290000000000001,497.0
9.3,512.0
9.31,498.0
9.32,514.0
9.33,506.0
9.34,530.0
9.35,518.0
9.36,542.0
9.370000000000001,514.0
9.38,524.0
9.39,496.0
9.4,521.0
9.41,493.0
9.42,517.0
9.43,489.0
9.44,518.0
9.450000000000001,484.0
9.46,516.0
9.47,485.0
9.48,518.0
9.49,478.0
9.5,509.0
9.51,600.0
9.52,684.0
9.53,517.0
9.540000000000001,494.0
9.55,488.0
9.56,526.0
9.57,488.0
9.58,534.0
9.59,487.0
9.6,542.0
9.61,493.0
9.620000000000001,538.0
9.63,494.0
9.64,540.0
9.65,494.0
9.66,538.0
9.67,493.0
9.68,545.0
9.69,494.0
9.700000000000001,552.0
9.71,499.0
9.72,555.0
9.73,499.0
9.74,555.0
9.75,502.0
9.76,552.0
9.77,495.0
9.78,544.0
9.790000000000001,481.0
9.8,535.0
9.81,473.0
9.82,532.0
9.83,471.0
9.84,528.0
9.85,468.0
9.86,525.0
9.870000000000001,470.0
9.88,526.0
9.89,466.0
9.9,523.0
9.91,470.0
9.92,521.0
9.93,466.0
9.94,523.0
9.950000000000001,469.0
9.96,520.0
9.97,464.0
9.98,520.0
9.99,469.0
