Time,ADC
0.0,442.0
0.01,439.0
0.02,437.0
0.03,432.0
0.04,427.0
0.05,416.0
0.06,408.0
0.07,403.0
0.08,393.0
0.09,387.0
0.1,381.0
0.11,379.0
0.12,387.0
0.13,379.0
0.14,381.0
0.15,388.0
0.16,391.0
0.17,388.0
0.18,411.0
0.19,388.0
0.2,401.0
0.21,391.0
0.22,402.0
0.23,392.0
0.24,399.0
0.25,390.0
0.26,393.0
0.27,381.0
0.28,402.0
0.29,377.0
0.3,398.0
0.31,390.0
0.32,410.0
0.33,390.0
0.34,406.0
0.35000000000000003,391.0
0.36,423.0
0.37,412.0
0.38,436.0
0.39,408.0
0.4,422.0
0.41000000000000003,386.0
0.42,415.0
0.43,391.0
0.44,402.0
0.45,375.0
0.46,397.0
0.47000000000000003,363.0
0.48,394.0
0.49,368.0
0.5,388.0
0.51,365.0
0.52,476.0
0.53,552.0
0.54,487.0
0.55,349.0
0.56,399.0
0.5700000000000001,374.0
0.58,414.0
0.59,378.0
0.6,412.0
0.61,397.0
0.62,430.0
0.63,394.0
0.64,432.0
0.65,389.0
0.66,432.0
0.67,394.0
0.68,428.0
0.6900000000000001,399.0
0.7000000000000001,430.0
0.71,396.0
0.72,428.0
0.73,402.0
0.74,437.0
0.75,404.0
0.76,446.0
0.77,415.0
0.78,446.0
0.79,406.0
0.8,432.0
0.81,387.0
0.8200000000000001,414.0
0.8300000000000001,394.0
0.84,428.0
0.85,397.0
0.86,414.0
0.87,382.0
0.88,411.0
0.89,373.0
0.9,405.0
0.91,389.0
0.92,422.0
0.93,388.0
0.9400000000000001,412.0
0.9500000000000001,382.0
0.96,403.0
0.97,378.0
0.98,401.0
0.99,369.0
1.0,396.0
1.01,377.0
1.02,402.0
1.03,392.0
1.04,423.0
1.05,405.0
1.06,423.0
1.07,392.0
1.08,406.0
1.09,389.0
1.1,415.0
1.11,409.0
1.12,441.0
1.1300000000000001,422.0
1.1400000000000001,426.0
1.1500000000000001,403.0
1.16,410.0
1.17,394.0
1.18,404.0
1.19,389.0
1.2,401.0
1.21,384.0
1.22,392.0
1.23,392.0
1.24,394.0
1.25,396.0
1.26,394.0
1.27,428.0
1.28,567.0
1.29,488.0
1.3,354.0
1.31,361.0
1.32,393.0
1.33,392.0
1.34,405.0
1.35,402.0
1.36,404.0
1.37,413.0
1.3800000000000001,412.0
1.3900000000000001,422.0
1.4000000000000001,414.0
1.41,442.0
1.42,428.0
1.43,439.0
1.44,422.0
1.45,436.0
1.46,417.0
1.47,449.0
1.48,440.0
1.49,460.0
1.5,449.0
1.51,459.0
1.52,445.0
1.53,465.0
1.54,434.0
1.55,446.0
1.56,412.0
1.57,423.0
1.58,394.0
1.59,424.0
1.6,394.0
1.61,425.0
1.62,404.0
1.6300000000000001,429.0
1.6400000000000001,405.0
1.6500000000000001,440.0
1.6600000000000001,412.0
1.67,432.0
1.68,410.0
1.69,436.0
1.7,412.0
1.71,441.0
1.72,414.0
1.73,445.0
1.74,415.0
1.75,447.0
1.76,413.0
1.77,442.0
1.78,414.0
1.79,436.0
1.8,414.0
1.81,447.0
1.82,403.0
1.83,442.0
1.84,417.0
1.85,447.0
1.86,429.0
1.87,457.0
1.8800000000000001,428.0
1.8900000000000001,457.0
1.9000000000000001,430.0
1.9100000000000001,454.0
1.92,437.0
1.93,475.0
1.94,450.0
1.95,481.0
1.96,441.0
1.97,462.0
1.98,428.0
1.99,465.0
2.0,432.0
2.0100000000000002,463.0
2.02,430.0
2.0300000000000002,464.0
2.04,451.0
2.05,478.0
2.06,492.0
2.07,532.0
2.08,498.0
2.09,687.0
2.1,651.0
2.11,533.0
2.12,470.0
2.13,553.0
2.14,502.0
2.15,542.0
2.16,514.0
2.17,530.0
2.18,495.0
2.19,525.0
2.2,499.0
2.21,528.0
2.22,500.0
2.23,538.0
2.24,513.0
2.25,541.0
2.2600000000000002,514.0
2.27,546.0
2.2800000000000002,522.0
2.29,553.0
2.3000000000000003,534.0
2.31,537.0
2.32,535.0
2.33,589.0
2.34,561.0
2.35,638.0
2.36,686.0
2.37,810.0
2.38,824.0
2.39,870.0
2.4,864.0
2.41,891.0
2.42,870.0
2.43,904.0
2.44,868.0
2.45,862.0
2.46,811.0
2.47,812.0
2.48,771.0
2.49,753.0
2.5,718.0
2.5100000000000002,739.0
2.52,711.0
2.5300000000000002,725.0
2.54,701.0
2.5500000000000003,714.0
2.56,681.0
2.57,694.0
2.58,675.0
2.59,685.0
2.6,655.0
2.61,665.0
2.62,649.0
2.63,643.0
2.64,622.0
2.65,631.0
2.66,615.0
2.67,625.0
2.68,610.0
2.69,625.0
2.7,625.0
2.71,674.0
2.72,666.0
2.73,790.0
2.74,966.0
2.75,1024.0
2.7600000000000002,1024.0
2.77,1024.0
2.7800000000000002,1024.0
2.79,1024.0
2.8000000000000003,1024.0
2.81,1024.0
2.82,1024.0
2.83,1024.0
2.84,1024.0
2.85,1024.0
2.86,991.0
2.87,912.0
2.88,914.0
2.89,876.0
2.9,862.0
2.91,858.0
2.92,832.0
2.93,818.0
2.94,807.0
2.95,953.0
2.96,963.0
2.97,893.0
2.98,756.0
2.99,814.0
3.0,907.0
3.0100000000000002,1024.0
3.02,1024.0
3.0300000000000002,1024.0
3.04,1024.0
3.0500000000000003,1024.0
3.06,1024.0
3.0700000000000003,1024.0
3.08,1024.0
3.09,1024.0
3.1,1024.0
3.11,1010.0
3.12,900.0
3.13,841.0
3.14,784.0
3.15,756.0
3.16,751.0
3.17,727.0
3.18,727.0
3.19,691.0
3.2,688.0
3.21,646.0
3.22,654.0
3.23,610.0
3.24,617.0
3.25,577.0
3.2600000000000002,566.0
3.27,543.0
3.2800000000000002,544.0
3.29,505.0
3.3000000000000003,505.0
3.31,473.0
3.3200000000000003,484.0
3.33,448.0
3.34,463.0
3.35,427.0
3.36,439.0
3.37,402.0
3.38,433.0
3.39,388.0
3.4,411.0
3.41,380.0
3.42,412.0
3.43,410.0
3.44,502.0
3.45,428.0
3.46,504.0
3.47,560.0
3.48,663.0
3.49,689.0
3.5,727.0
3.5100000000000002,703.0
3.52,746.0
3.5300000000000002,718.0
3.54,740.0
3.5500000000000003,726.0
3.56,729.0
3.5700000000000003,639.0
3.58,596.0
3.59,502.0
3.6,473.0
3.61,424.0
3.62,427.0
3.63,392.0
3.64,413.0
3.65,367.0
3.66,386.0
3.67,354.0
3.68,379.0
3.69,350.0
3.7,374.0
3.71,365.0
3.72,403.0
3.73,428.0
3.74,499.0
3.75,526.0
3.7600000000000002,488.0
3.77,377.0
3.7800000000000002,457.0
3.79,457.0
3.8000000000000003,483.0
3.81,475.0
3.8200000000000003,504.0
3.83,498.0
3.84,522.0
3.85,464.0
3.86,427.0
3.87,357.0
3.88,324.0
3.89,264.0
3.9,286.0
3.91,253.0
3.92,277.0
3.93,246.0
3.94,266.0
3.95,238.0
3.96,256.0
3.97,234.0
3.98,255.0
3.99,226.0
4.0,241.0
4.01,205.0
4.0200000000000005,201.0
4.03,176.0
4.04,184.0
4.05,158.0
4.0600000000000005,173.0
4.07,149.0
4.08,163.0
4.09,138.0
4.1,158.0
4.11,130.0
4.12,150.0
4.13,147.0
4.14,150.0
4.15,149.0
4.16,169.0
4.17,187.0
4.18,201.0
4.19,220.0
4.2,206.0
4.21,267.0
4.22,329.0
4.23,365.0
4.24,388.0
4.25,392.0
4.26,412.0
4.2700000000000005,423.0
4.28,422.0
4.29,430.0
4.3,396.0
4.3100000000000005,346.0
4.32,293.0
4.33,228.0
4.34,205.0
4.3500000000000005,208.0
4.36,216.0
4.37,223.0
4.38,216.0
4.39,226.0
4.4,226.0
4.41,244.0
4.42,254.0
4.43,273.0
4.44,289.0
4.45,322.0
4.46,328.0
4.47,294.0
4.48,300.0
4.49,350.0
4.5,362.0
4.51,389.0
4.5200000000000005,373.0
4.53,393.0
4.54,391.0
4.55,413.0
4.5600000000000005,426.0
4.57,559.0
4.58,433.0
4.59,254.0
4.6000000000000005,165.0
4.61,190.0
4.62,182.0
4.63,214.0
4.64,200.0
4.65,230.0
4.66,207.0
4.67,229.0
4.68,210.0
4.69,236.0
4.7,210.0
4.71,241.0
4.72,218.0
4.73,243.0
4.74,211.0
4.75,242.0
4.76,218.0
4.7700000000000005,243.0
4.78,226.0
4.79,256.0
4.8,233.0
4.8100000000000005,254.0
4.82,216.0
4.83,246.0
4.84,201.0
4.8500000000000005,246.0
4.86,194.0
4.87,226.0
4.88,197.0
4.89,240.0
4.9,206.0
4.91,244.0
4.92,209.0
4.93,247.0
4.94,229.0
4.95,268.0
4.96,212.0
4.97,232.0
4.98,220.0
4.99,253.0
5.0,214.0
5.01,272.0
5.0200000000000005,249.0
5.03,277.0
5.04,254.0
5.05,270.0
5.0600000000000005,229.0
5.07,246.0
5.08,217.0
5.09,248.0
5.1000000000000005,244.0
5.11,290.0
5.12,282.0
5.13,319.0
5.14,291.0
5.15,309.0
5.16,277.0
5.17,288.0
5.18,283.0
5.19,319.0
5.2,288.0
5.21,317.0
5.22,300.0
5.23,328.0
5.24,308.0
5.25,327.0
5.26,298.0
5.2700000000000005,308.0
5.28,291.0
5.29,300.0
5.3,282.0
5.3100000000000005,297.0
5.32,290.0
5.33,293.0
5.34,294.0
5.3500000000000005,306.0
5.36,298.0
5.37,301.0
5.38,284.0
5.39,385.0
5.4,461.0
5.41,341.0
5.42,237.0
5.43,280.0
5.44,288.0
5.45,303.0
5.46,306.0
5.47,308.0
5.48,312.0
5.49,303.0
5.5,312.0
5.51,308.0
5.5200000000000005,328.0
5.53,315.0
5.54,330.0
5.55,325.0
5.5600000000000005,340.0
5.57,336.0
5.58,344.0
5.59,330.0
5.6000000000000005,354.0
5.61,346.0
5.62,357.0
5.63,346.0
5.64,358.0
5.65,341.0
5.66,355.0
5.67,329.0
5.68,346.0
5.69,310.0
5.7,330.0
5.71,317.0
5.72,340.0
5.73,321.0
5.74,334.0
5.75,329.0
5.76,353.0
5.7700000000000005,337.0
5.78,365.0
5.79,334.0
5.8,361.0
5.8100000000000005,346.0
5.82,377.0
5.83,353.0
5.84,378.0
5.8500000000000005,357.0
5.86,391.0
5.87,357.0
5.88,387.0
5.89,364.0
5.9,398.0
5.91,367.0
5.92,394.0
5.93,369.0
5.94,408.0
5.95,373.0
5.96,412.0
5.97,387.0
5.98,435.0
5.99,406.0
6.0,437.0
6.01,405.0
6.0200000000000005,428.0
6.03,393.0
6.04,425.0
6.05,394.0
6.0600000000000005,423.0
6.07,388.0
6.08,423.0
6.09,389.0
6.1000000000000005,427.0
6.11,382.0
6.12,423.0
6.13,384.0
6.140000000000001,432.0
6.15,554.0
6.16,535.0
6.17,369.0
6.18,392.0
6.19,394.0
6.2,430.0
6.21,415.0
6.22,446.0
6.23,422.0
6.24,449.0
6.25,430.0
6.26,460.0
6.2700000000000005,436.0
6.28,461.0
6.29,441.0
6.3,465.0
6.3100000000000005,442.0
6.32,472.0
6.33,452.0
6.34,477.0
6.3500000000000005,457.0
6.36,483.0
6.37,457.0
6.38,475.0
6.390000000000001,461.0
6.4,478.0
6.41,450.0
6.42,460.0
6.43,434.0
6.44,449.0
6.45,426.0
6.46,437.0
6.47,418.0
6.48,437.0
6.49,415.0
6.5,433.0
6.51,417.0
6.5200000000000005,434.0
6.53,424.0
6.54,433.0
6.55,429.0
6.5600000000000005,439.0
6.57,433.0
6.58,437.0
6.59,428.0
6.6000000000000005,435.0
6.61,429.0
6.62,436.0
6.63,429.0
6.640000000000001,429.0
6.65,430.0
6.66,440.0
6.67,448.0
6.68,458.0
6.69,452.0
6.7,452.0
6.71,439.0
6.72,429.0
6.73,429.0
6.74,426.0
6.75,429.0
6.76,424.0
6.7700000000000005,429.0
6.78,423.0
6.79,427.0
6.8,415.0
6.8100000000000005,424.0
6.82,412.0
6.83,414.0
6.84,506.0
6.8500000000000005,562.0
6.86,433.0
6.87,361.0
6.88,392.0
6.890000000000001,412.0
6.9,412.0
6.91,428.0
6.92,413.0
6.93,436.0
6.94,412.0
6.95,436.0
6.96,414.0
6.97,439.0
6.98,415.0
6.99,441.0
7.0,414.0
7.01,447.0
7.0200000000000005,417.0
7.03,450.0
7.04,429.0
7.05,450.0
7.0600000000000005,428.0
7.07,454.0
7.08,429.0
7.09,448.0
7.1000000000000005,422.0
7.11,446.0
7.12,405.0
7.13,432.0
7.140000000000001,394.0
7.15,423.0
7.16,389.0
7.17,424.0
7.18,388.0
7.19,423.0
7.2,393.0
7.21,429.0
7.22,397.0
7.23,428.0
7.24,396.0
7.25,429.0
7.26,402.0
7.2700000000000005,430.0
7.28,397.0
7.29,428.0
7.3,396.0
7.3100000000000005,430.0
7.32,396.0
7.33,427.0
7.34,396.0
7.3500000000000005,430.0
7.36,392.0
7.37,430.0
7.38,393.0
7.390000000000001,436.0
7.4,414.0
7.41,452.0
7.42,427.0
7.43,452.0
7.44,412.0
7.45,437.0
7.46,404.0
7.47,436.0
7.48,403.0
7.49,432.0
7.5,403.0
7.51,430.0
7.5200000000000005,399.0
7.53,429.0
7.54,403.0
7.55,429.0
7.5600000000000005,408.0
7.57,585.0
7.58,521.0
7.59,405.0
7.6000000000000005,362.0
7.61,435.0
7.62,406.0
7.63,448.0
7.640000000000001,426.0
7.65,452.0
7.66,434.0
7.67,459.0
7.68,437.0
7.69,461.0
7.7,446.0
7.71,469.0
7.72,452.0
7.73,470.0
7.74,456.0
7.75,474.0
7.76,462.0
7.7700000000000005,482.0
7.78,471.0
7.79,486.0
7.8,475.0
7.8100000000000005,488.0
7.82,474.0
7.83,481.0
7.84,464.0
7.8500000000000005,470.0
7.86,454.0
7.87,457.0
7.88,441.0
7.890000000000001,448.0
7.9,445.0
7.91,460.0
7.92,442.0
7.930000000000001,456.0
7.94,453.0
7.95,454.0
7.96,457.0
7.97,460.0
7.98,466.0
7.99,460.0
8.0,460.0
8.01,463.0
8.02,469.0
8.03,464.0
8.040000000000001,469.0
8.05,469.0
8.06,469.0
8.07,471.0
8.08,476.0
8.09,466.0
8.1,477.0
8.11,471.0
8.120000000000001,480.0
8.13,474.0
8.14,494.0
8.15,486.0
8.16,512.0
8.17,506.0
8.18,506.0
8.19,493.0
8.2,495.0
8.21,476.0
8.22,496.0
8.23,470.0
8.24,496.0
8.25,474.0
8.26,489.0
8.27,480.0
8.28,490.0
8.290000000000001,477.0
8.3,489.0
8.31,465.0
8.32,605.0
8.33,607.0
8.34,518.0
8.35,417.0
8.36,484.0
8.370000000000001,476.0
8.38,507.0
8.39,476.0
8.4,507.0
8.41,486.0
8.42,508.0
8.43,487.0
8.44,516.0
8.45,488.0
8.46,516.0
8.47,488.0
8.48,520.0
8.49,495.0
8.5,530.0
8.51,506.0
8.52,524.0
8.53,501.0
8.540000000000001,536.0
8.55,500.0
8.56,536.0
8.57,506.0
8.58,540.0
8.59,501.0
8.6,518.0
8.61,476.0
8.620000000000001,511.0
8.63,475.0
8.64,504.0
8.65,469.0
8.66,502.0
8.67,475.0
8.68,514.0
8.69,475.0
8.700000000000001,502.0
8.71,481.0
8.72,514.0
8.73,480.0
8.74,506.0
8.75,484.0
8.76,513.0
8.77,480.0
8.78,512.0
8.790000000000001,475.0
8.8,508.0
8.81,476.0
8.82,509.0
8.83,475.0
8.84,511.0
8.85,493.0
8.86,528.0
8.870000000000001,499.0
8.88,532.0
8.89,487.0
8.9,507.0
8.91,475.0
8.92,497.0
8.93,471.0
8.94,496.0
8.950000000000001,471.0
8.96,495.0
8.97,469.0
8.98,490.0
8.99,468.0
9.0,493.0
9.01,450.0
9.02,544.0
9.03,626.0
9.040000000000001,552.0
9.05,412.0
9.06,463.0
9.07,457.0
9.08,493.0
9.09,481.0
9.1,494.0
9.11,481.0
9.120000000000001,499.0
9.13,486.0
9.14,497.0
9.15,493.0
9.16,504.0
9.17,497.0
9.18,507.0
9.19,500.0
9.200000000000001,509.0
9.21,507.0
9.22,514.0
9.23,508.0
9.24,513.0
9.25,512.0
9.26,518.0
9.27,512.0
9.28,508.0
9.290000000000001,502.0
9.3,497.0
9.31,489.0
9.32,481.0
9.33,480.0
9.34,475.0
9.35,478.0
9.36,476.0
9.370000000000001,485.0
9.38,481.0
9.39,487.0
9.4,481.0
9.41,487.0
9.42,482.0
9.43,494.0
9.44,485.0
9.450000000000001,495.0
9.46,485.0
9.47,498.0
9.48,486.0
9.49,496.0
9.5,484.0
9.51,497.0
9.52,484.0
9.53,502.0
9.540000000000001,484.0
9.55,498.0
9.56,486.0
9.57,499.0
9.58,484.0
9.59,506.0
9.6,498.0
9.61,530.0
9.620000000000001,512.0
9.63,530.0
9.64,493.0
9.65,508.0
9.66,489.0
9.67,508.0
9.68,478.0
9.69,505.0
9.700000000000001,476.0
9.71,500.0
9.72,478.0
9.73,497.0
9.74,476.0
9.75,498.0
9.76,470.0
9.77,633.0
9.78,598.0
9.790000000000001,488.0
9.8,415.0
9.81,489.0
9.82,466.0
9.83,511.0
9.84,480.0
9.85,511.0
9.86,488.0
9.870000000000001,519.0
9.88,486.0
9.89,521.0
9.9,486.0
9.91,522.0
9.92,486.0
9.93,522.0
9.94,493.0
9.950000000000001,526.0
9.96,495.0
9.97,525.0
9.98,496.0
9.99,532.0
