Time,ADC
0.0,509.0
0.01,602.0
0.02,514.0
0.03,605.0
0.04,516.0
0.05,608.0
0.06,512.0
0.07,602.0
0.08,499.0
0.09,585.0
0.1,484.0
0.11,573.0
0.12,477.0
0.13,572.0
0.14,478.0
0.15,574.0
0.16,478.0
0.17,578.0
0.18,483.0
0.19,579.0
0.2,484.0
0.21,580.0
0.22,486.0
0.23,576.0
0.24,485.0
0.25,578.0
0.26,488.0
0.27,579.0
0.28,487.0
0.29,579.0
0.3,487.0
0.31,574.0
0.32,486.0
0.33,574.0
0.34,488.0
0.35000000000000003,576.0
0.36,487.0
0.37,572.0
0.38,495.0
0.39,583.0
0.4,502.0
0.41000000000000003,589.0
0.42,506.0
0.43,579.0
0.44,495.0
0.45,572.0
0.46,494.0
0.47000000000000003,569.0
0.48,498.0
0.49,570.0
0.5,496.0
0.51,567.0
0.52,498.0
0.53,567.0
0.54,489.0
0.55,548.0
0.56,629.0
0.5700000000000001,718.0
0.58,516.0
0.59,523.0
0.6,509.0
0.61,550.0
0.62,513.0
0.63,560.0
0.64,514.0
0.65,561.0
0.66,519.0
0.67,567.0
0.68,523.0
0.6900000000000001,567.0
0.7000000000000001,535.0
0.71,570.0
0.72,535.0
0.73,572.0
0.74,545.0
0.75,576.0
0.76,553.0
0.77,582.0
0.78,556.0
0.79,572.0
0.8,556.0
0.81,574.0
0.8200000000000001,553.0
0.8300000000000001,555.0
0.84,541.0
0.85,540.0
0.86,531.0
0.87,531.0
0.88,528.0
0.89,532.0
0.9,532.0
0.91,530.0
0.92,537.0
0.93,533.0
0.9400000000000001,544.0
0.9500000000000001,525.0
0.96,541.0
0.97,530.0
0.98,546.0
0.99,529.0
1.0,553.0
1.01,521.0
1.02,556.0
1.03,519.0
1.04,556.0
1.05,513.0
1.06,560.0
1.07,516.0
1.08,560.0
1.09,512.0
1.1,565.0
1.11,512.0
1.12,561.0
1.1300000000000001,510.0
1.1400000000000001,577.0
1.1500000000000001,526.0
1.16,589.0
1.17,522.0
1.18,583.0
1.19,514.0
1.2,580.0
1.21,511.0
1.22,574.0
1.23,502.0
1.24,581.0
1.25,502.0
1.26,578.0
1.27,498.0
1.28,585.0
1.29,486.0
1.3,558.0
1.31,601.0
1.32,748.0
1.33,536.0
1.34,545.0
1.35,485.0
1.36,574.0
1.37,499.0
1.3800000000000001,590.0
1.3900000000000001,497.0
1.4000000000000001,591.0
1.41,502.0
1.42,590.0
1.43,508.0
1.44,595.0
1.45,508.0
1.46,604.0
1.47,508.0
1.48,602.0
1.49,523.0
1.5,606.0
1.51,522.0
1.52,609.0
1.53,525.0
1.54,613.0
1.55,523.0
1.56,612.0
1.57,516.0
1.58,600.0
1.59,505.0
1.6,580.0
1.61,489.0
1.62,576.0
1.6300000000000001,481.0
1.6400000000000001,571.0
1.6500000000000001,486.0
1.6600000000000001,572.0
1.67,488.0
1.68,578.0
1.69,490.0
1.7,579.0
1.71,489.0
1.72,577.0
1.73,498.0
1.74,578.0
1.75,502.0
1.76,578.0
1.77,502.0
1.78,577.0
1.79,505.0
1.8,571.0
1.81,502.0
1.82,580.0
1.83,513.0
1.84,586.0
1.85,528.0
1.86,589.0
1.87,513.0
1.8800000000000001,579.0
1.8900000000000001,513.0
1.9000000000000001,566.0
1.9100000000000001,509.0
1.92,562.0
1.93,509.0
1.94,561.0
1.95,514.0
1.96,559.0
1.97,516.0
1.98,543.0
1.99,489.0
2.0,648.0
2.0100000000000002,681.0
2.02,597.0
2.0300000000000002,488.0
2.04,543.0
2.05,513.0
2.06,545.0
2.07,535.0
2.08,549.0
2.09,536.0
2.1,552.0
2.11,544.0
2.12,552.0
2.13,549.0
2.14,554.0
2.15,553.0
2.16,555.0
2.17,557.0
2.18,554.0
2.19,567.0
2.2,556.0
2.21,570.0
2.22,559.0
2.23,580.0
2.24,559.0
2.25,574.0
2.2600000000000002,552.0
2.27,560.0
2.2800000000000002,530.0
2.29,549.0
2.3000000000000003,514.0
2.31,544.0
2.32,511.0
2.33,544.0
2.34,513.0
2.35,548.0
2.36,509.0
2.37,552.0
2.38,509.0
2.39,556.0
2.4,509.0
2.41,558.0
2.42,508.0
2.43,562.0
2.44,507.0
2.45,558.0
2.46,507.0
2.47,561.0
2.48,499.0
2.49,562.0
2.5,502.0
2.5100000000000002,580.0
2.52,506.0
2.5300000000000002,593.0
2.54,507.0
2.5500000000000003,576.0
2.56,494.0
2.57,570.0
2.58,493.0
2.59,576.0
2.6,493.0
2.61,572.0
2.62,486.0
2.63,568.0
2.64,484.0
2.65,572.0
2.66,469.0
2.67,574.0
2.68,643.0
2.69,715.0
2.7,471.0
2.71,550.0
2.72,484.0
2.73,566.0
2.74,492.0
2.75,580.0
2.7600000000000002,489.0
2.77,583.0
2.7800000000000002,493.0
2.79,588.0
2.8000000000000003,497.0
2.81,590.0
2.82,502.0
2.83,592.0
2.84,505.0
2.85,600.0
2.86,511.0
2.87,598.0
2.88,513.0
2.89,605.0
2.9,518.0
2.91,603.0
2.92,516.0
2.93,598.0
2.94,510.0
2.95,583.0
2.96,495.0
2.97,568.0
2.98,484.0
2.99,560.0
3.0,481.0
3.0100000000000002,559.0
3.02,484.0
3.0300000000000002,558.0
3.04,487.0
3.0500000000000003,560.0
3.06,489.0
3.0700000000000003,561.0
3.08,495.0
3.09,562.0
3.1,496.0
3.11,562.0
3.12,499.0
3.13,562.0
3.14,499.0
3.15,560.0
3.16,501.0
3.17,558.0
3.18,505.0
3.19,559.0
3.2,513.0
3.21,570.0
3.22,524.0
3.23,577.0
3.24,522.0
3.25,562.0
3.2600000000000002,518.0
3.27,558.0
3.2800000000000002,518.0
3.29,554.0
3.3000000000000003,516.0
3.31,545.0
3.3200000000000003,519.0
3.33,559.0
3.34,509.0
3.35,560.0
3.36,495.0
3.37,556.0
3.38,667.0
3.39,692.0
3.4,504.0
3.41,526.0
3.42,514.0
3.43,542.0
3.44,524.0
3.45,558.0
3.46,528.0
3.47,558.0
3.48,534.0
3.49,560.0
3.5,538.0
3.5100000000000002,562.0
3.52,545.0
3.5300000000000002,568.0
3.54,550.0
3.5500000000000003,561.0
3.56,561.0
3.5700000000000003,562.0
3.58,568.0
3.59,562.0
3.6,574.0
3.61,561.0
3.62,580.0
3.63,556.0
3.64,566.0
3.65,541.0
3.66,555.0
3.67,525.0
3.68,552.0
3.69,518.0
3.7,545.0
3.71,519.0
3.72,552.0
3.73,518.0
3.74,552.0
3.75,519.0
3.7600000000000002,561.0
3.77,522.0
3.7800000000000002,559.0
3.79,513.0
3.8000000000000003,566.0
3.81,518.0
3.8200000000000003,569.0
3.83,513.0
3.84,569.0
3.85,511.0
3.86,567.0
3.87,511.0
3.88,569.0
3.89,511.0
3.9,574.0
3.91,513.0
3.92,586.0
3.93,519.0
3.94,594.0
3.95,523.0
3.96,581.0
3.97,511.0
3.98,581.0
3.99,500.0
4.0,579.0
4.01,499.0
4.0200000000000005,574.0
4.03,497.0
4.04,580.0
4.05,495.0
4.0600000000000005,579.0
4.07,490.0
4.08,552.0
4.09,571.0
4.1,751.0
4.11,561.0
4.12,550.0
4.13,486.0
4.14,573.0
4.15,496.0
4.16,589.0
4.17,494.0
4.18,588.0
4.19,498.0
4.2,596.0
4.21,499.0
4.22,595.0
4.23,506.0
4.24,598.0
4.25,507.0
4.26,602.0
4.2700000000000005,513.0
4.28,604.0
4.29,523.0
4.3,609.0
4.3100000000000005,526.0
4.32,608.0
4.33,528.0
4.34,610.0
4.3500000000000005,519.0
4.36,595.0
4.37,508.0
4.38,578.0
4.39,497.0
4.4,567.0
4.41,489.0
4.42,567.0
4.43,495.0
4.44,568.0
4.45,497.0
4.46,567.0
4.47,498.0
4.48,567.0
4.49,505.0
4.5,568.0
4.51,505.0
4.5200000000000005,566.0
4.53,509.0
4.54,567.0
4.55,510.0
4.5600000000000005,560.0
4.57,512.0
4.58,566.0
4.59,508.0
4.6000000000000005,561.0
4.61,522.0
4.62,576.0
4.63,528.0
4.64,580.0
4.65,526.0
4.66,560.0
4.67,525.0
4.68,559.0
4.69,523.0
4.7,558.0
4.71,525.0
4.72,552.0
4.73,524.0
4.74,550.0
4.75,525.0
4.76,545.0
4.7700000000000005,508.0
4.78,554.0
4.79,700.0
4.8,666.0
4.8100000000000005,506.0
4.82,520.0
4.83,531.0
4.84,528.0
4.8500000000000005,542.0
4.86,541.0
4.87,541.0
4.88,542.0
4.89,550.0
4.9,540.0
4.91,552.0
4.92,545.0
4.93,559.0
4.94,543.0
4.95,567.0
4.96,537.0
4.97,574.0
4.98,541.0
4.99,579.0
5.0,541.0
5.01,584.0
5.0200000000000005,542.0
5.03,586.0
5.04,537.0
5.05,578.0
5.0600000000000005,521.0
5.07,560.0
5.08,525.0
5.09,557.0
5.1000000000000005,525.0
5.11,552.0
5.12,523.0
5.13,555.0
5.14,523.0
5.15,562.0
5.16,512.0
5.17,566.0
5.18,506.0
5.19,569.0
5.2,498.0
5.21,569.0
5.22,497.0
5.23,567.0
5.24,496.0
5.25,571.0
5.26,493.0
5.2700000000000005,569.0
5.28,494.0
5.29,568.0
5.3,496.0
5.3100000000000005,572.0
5.32,497.0
5.33,576.0
5.34,505.0
5.3500000000000005,593.0
5.36,507.0
5.37,602.0
5.38,506.0
5.39,586.0
5.4,497.0
5.41,589.0
5.42,494.0
5.43,585.0
5.44,489.0
5.45,580.0
5.46,486.0
5.47,581.0
5.48,489.0
5.49,578.0
5.5,473.0
5.51,578.0
5.5200000000000005,666.0
5.53,714.0
5.54,488.0
5.55,552.0
5.5600000000000005,497.0
5.57,569.0
5.58,496.0
5.59,582.0
5.6000000000000005,495.0
5.61,585.0
5.62,497.0
5.63,593.0
5.64,502.0
5.65,590.0
5.66,505.0
5.67,592.0
5.68,511.0
5.69,592.0
5.7,521.0
5.71,596.0
5.72,522.0
5.73,598.0
5.74,526.0
5.75,601.0
5.76,526.0
5.7700000000000005,595.0
5.78,518.0
5.79,579.0
5.8,507.0
5.8100000000000005,562.0
5.82,496.0
5.83,555.0
5.84,490.0
5.8500000000000005,553.0
5.86,495.0
5.87,548.0
5.88,502.0
5.89,554.0
5.9,501.0
5.91,555.0
5.92,508.0
5.93,547.0
5.94,512.0
5.95,553.0
5.96,514.0
5.97,553.0
5.98,516.0
5.99,552.0
6.0,514.0
6.01,550.0
6.0200000000000005,519.0
6.03,544.0
6.04,519.0
6.05,546.0
6.0600000000000005,520.0
6.07,545.0
6.08,529.0
6.09,549.0
6.1000000000000005,540.0
6.11,554.0
6.12,552.0
6.13,560.0
6.140000000000001,544.0
6.15,540.0
6.16,542.0
6.17,544.0
6.18,541.0
6.19,537.0
6.2,542.0
6.21,533.0
6.22,542.0
6.23,534.0
6.24,550.0
6.25,518.0
6.26,522.0
6.2700000000000005,642.0
6.28,712.0
6.29,570.0
6.3,519.0
6.3100000000000005,518.0
6.32,540.0
6.33,524.0
6.34,558.0
6.3500000000000005,525.0
6.36,559.0
6.37,526.0
6.38,562.0
6.390000000000001,520.0
6.4,574.0
6.41,524.0
6.42,574.0
6.43,523.0
6.44,584.0
6.45,525.0
6.46,591.0
6.47,528.0
6.48,590.0
6.49,533.0
6.5,602.0
6.51,531.0
6.5200000000000005,598.0
6.53,522.0
6.54,588.0
6.55,508.0
6.5600000000000005,579.0
6.57,493.0
6.58,576.0
6.59,486.0
6.6000000000000005,566.0
6.61,495.0
6.62,574.0
6.63,493.0
6.640000000000001,574.0
6.65,493.0
6.66,579.0
6.67,498.0
6.68,572.0
6.69,494.0
6.7,586.0
6.71,497.0
6.72,581.0
6.73,497.0
6.74,581.0
6.75,493.0
6.76,583.0
6.7700000000000005,495.0
6.78,581.0
6.79,490.0
6.8,582.0
6.8100000000000005,507.0
6.82,598.0
6.83,512.0
6.84,607.0
6.8500000000000005,505.0
6.86,585.0
6.87,499.0
6.88,586.0
6.890000000000001,495.0
6.9,581.0
6.91,495.0
6.92,583.0
6.93,494.0
6.94,579.0
6.95,495.0
6.96,579.0
6.97,475.0
6.98,588.0
6.99,660.0
7.0,709.0
7.01,469.0
7.0200000000000005,562.0
7.03,494.0
7.04,570.0
7.05,505.0
7.0600000000000005,578.0
7.07,499.0
7.08,578.0
7.09,504.0
7.1000000000000005,583.0
7.11,508.0
7.12,586.0
7.13,513.0
7.140000000000001,585.0
7.15,516.0
7.16,594.0
7.17,530.0
7.18,585.0
7.19,540.0
7.2,590.0
7.21,543.0
7.22,606.0
7.23,533.0
7.24,595.0
7.25,521.0
7.26,580.0
7.2700000000000005,519.0
7.28,556.0
7.29,509.0
7.3,546.0
7.3100000000000005,513.0
7.32,543.0
7.33,520.0
7.34,542.0
7.3500000000000005,524.0
7.36,540.0
7.37,521.0
7.38,543.0
7.390000000000001,517.0
7.4,545.0
7.41,519.0
7.42,546.0
7.43,520.0
7.44,541.0
7.45,523.0
7.46,537.0
7.47,522.0
7.48,534.0
7.49,531.0
7.5,526.0
7.51,541.0
7.5200000000000005,525.0
7.53,545.0
7.54,528.0
7.55,555.0
7.5600000000000005,535.0
7.57,553.0
7.58,531.0
7.59,545.0
7.6000000000000005,513.0
7.61,542.0
7.62,488.0
7.63,608.0
7.640000000000001,542.0
7.65,615.0
7.66,594.0
7.67,689.0
7.68,641.0
7.69,759.0
7.7,632.0
7.71,746.0
7.72,799.0
7.73,864.0
7.74,625.0
7.75,739.0
7.76,661.0
7.7700000000000005,727.0
7.78,652.0
7.79,691.0
7.8,614.0
7.8100000000000005,650.0
7.82,584.0
7.83,614.0
7.84,540.0
7.8500000000000005,577.0
7.86,535.0
7.87,616.0
7.88,523.0
7.890000000000001,598.0
7.9,516.0
7.91,631.0
7.92,541.0
7.930000000000001,655.0
7.94,565.0
7.95,680.0
7.96,550.0
7.97,676.0
7.98,529.0
7.99,699.0
8.0,518.0
8.01,692.0
8.02,484.0
8.03,662.0
8.040000000000001,473.0
8.05,753.0
8.06,600.0
8.07,891.0
8.08,691.0
8.09,960.0
8.1,733.0
8.11,988.0
8.120000000000001,762.0
8.13,1018.0
8.14,762.0
8.15,988.0
8.16,742.0
8.17,957.0
8.18,715.0
8.19,894.0
8.2,696.0
8.21,856.0
8.22,646.0
8.23,819.0
8.24,610.0
8.25,825.0
8.26,606.0
8.27,830.0
8.28,609.0
8.290000000000001,847.0
8.3,627.0
8.31,860.0
8.32,624.0
8.33,834.0
8.34,602.0
8.35,805.0
8.36,594.0
8.370000000000001,786.0
8.38,579.0
8.39,766.0
8.4,572.0
8.41,746.0
8.42,559.0
8.43,725.0
8.44,528.0
8.45,739.0
8.46,721.0
8.47,844.0
8.48,526.0
8.49,712.0
8.5,572.0
8.51,711.0
8.52,561.0
8.53,692.0
8.540000000000001,552.0
8.55,672.0
8.56,547.0
8.57,656.0
8.58,552.0
8.59,627.0
8.6,536.0
8.61,598.0
8.620000000000001,513.0
8.63,568.0
8.64,488.0
8.65,554.0
8.66,489.0
8.67,561.0
8.68,524.0
8.69,613.0
8.700000000000001,617.0
8.71,650.0
8.72,665.0
8.73,674.0
8.74,684.0
8.75,665.0
8.76,702.0
8.77,668.0
8.78,682.0
8.790000000000001,655.0
8.8,670.0
8.81,639.0
8.82,638.0
8.83,612.0
8.84,619.0
8.85,581.0
8.86,590.0
8.870000000000001,558.0
8.88,576.0
8.89,530.0
8.9,558.0
8.91,502.0
8.92,537.0
8.93,480.0
8.94,519.0
8.950000000000001,463.0
8.96,502.0
8.97,432.0
8.98,486.0
8.99,403.0
9.0,494.0
9.01,400.0
9.02,518.0
9.03,400.0
9.040000000000001,514.0
9.05,397.0
9.06,523.0
9.07,400.0
9.08,526.0
9.09,406.0
9.1,520.0
9.11,406.0
9.120000000000001,521.0
9.13,416.0
9.14,511.0
9.15,384.0
9.16,541.0
9.17,566.0
9.18,593.0
9.19,350.0
9.200000000000001,476.0
9.21,365.0
9.22,480.0
9.23,356.0
9.24,482.0
9.25,319.0
9.26,478.0
9.27,317.0
9.28,497.0
9.290000000000001,317.0
9.3,524.0
9.31,331.0
9.32,550.0
9.33,349.0
9.34,581.0
9.35,382.0
9.36,618.0
9.370000000000001,426.0
9.38,652.0
9.39,453.0
9.4,681.0
9.41,475.0
9.42,713.0
9.43,478.0
9.44,714.0
9.450000000000001,474.0
9.46,715.0
9.47,466.0
9.48,709.0
9.49,468.0
9.5,708.0
9.51,464.0
9.52,701.0
9.53,460.0
9.540000000000001,685.0
9.55,448.0
9.56,656.0
9.57,435.0
9.58,641.0
9.59,440.0
9.6,624.0
9.61,434.0
9.620000000000001,600.0
9.63,424.0
9.64,578.0
9.65,405.0
9.66,559.0
9.67,387.0
9.68,548.0
9.69,386.0
9.700000000000001,550.0
9.71,378.0
9.72,545.0
9.73,363.0
9.74,533.0
9.75,356.0
9.76,529.0
9.77,357.0
9.78,534.0
9.790000000000001,367.0
9.8,537.0
9.81,377.0
9.82,546.0
9.83,392.0
9.84,553.0
9.85,388.0
9.86,586.0
9.870000000000001,602.0
9.88,693.0
9.89,415.0
9.9,561.0
9.91,461.0
9.92,579.0
9.93,483.0
9.94,594.0
9.950000000000001,499.0
9.96,604.0
9.97,507.0
9.98,601.0
9.99,508.0
