Time,ADC
0.0,532.0
0.01,565.0
0.02,534.0
0.03,567.0
0.04,536.0
0.05,571.0
0.06,535.0
0.07,567.0
0.08,541.0
0.09,564.0
0.1,541.0
0.11,567.0
0.12,542.0
0.13,571.0
0.14,545.0
0.15,571.0
0.16,555.0
0.17,572.0
0.18,559.0
0.19,579.0
0.2,555.0
0.21,572.0
0.22,560.0
0.23,577.0
0.24,566.0
0.25,581.0
0.26,559.0
0.27,567.0
0.28,553.0
0.29,555.0
0.3,547.0
0.31,554.0
0.32,549.0
0.33,552.0
0.34,547.0
0.35000000000000003,548.0
0.36,542.0
0.37,544.0
0.38,537.0
0.39,523.0
0.4,645.0
0.41000000000000003,694.0
0.42,585.0
0.43,494.0
0.44,533.0
0.45,516.0
0.46,552.0
0.47000000000000003,533.0
0.48,552.0
0.49,537.0
0.5,559.0
0.51,541.0
0.52,561.0
0.53,542.0
0.54,571.0
0.55,543.0
0.56,568.0
0.5700000000000001,543.0
0.58,574.0
0.59,547.0
0.6,579.0
0.61,555.0
0.62,589.0
0.63,562.0
0.64,598.0
0.65,566.0
0.66,598.0
0.67,553.0
0.68,579.0
0.6900000000000001,537.0
0.7000000000000001,576.0
0.71,526.0
0.72,572.0
0.73,528.0
0.74,562.0
0.75,523.0
0.76,568.0
0.77,533.0
0.78,576.0
0.79,533.0
0.8,579.0
0.81,528.0
0.8200000000000001,584.0
0.8300000000000001,532.0
0.84,580.0
0.85,530.0
0.86,585.0
0.87,533.0
0.88,580.0
0.89,525.0
0.9,572.0
0.91,486.0
0.92,550.0
0.93,487.0
0.9400000000000001,556.0
0.9500000000000001,499.0
0.96,571.0
0.97,518.0
0.98,594.0
0.99,534.0
1.0,612.0
1.01,537.0
1.02,604.0
1.03,526.0
1.04,598.0
1.05,523.0
1.06,595.0
1.07,528.0
1.08,591.0
1.09,524.0
1.1,593.0
1.11,520.0
1.12,604.0
1.1300000000000001,523.0
1.1400000000000001,578.0
1.1500000000000001,603.0
1.16,763.0
1.17,592.0
1.18,565.0
1.19,522.0
1.2,583.0
1.21,532.0
1.22,604.0
1.23,535.0
1.24,603.0
1.25,545.0
1.26,614.0
1.27,553.0
1.28,615.0
1.29,556.0
1.3,624.0
1.31,562.0
1.32,626.0
1.33,567.0
1.34,629.0
1.35,572.0
1.36,629.0
1.37,571.0
1.3800000000000001,628.0
1.3900000000000001,571.0
1.4000000000000001,626.0
1.41,569.0
1.42,614.0
1.43,552.0
1.44,595.0
1.45,534.0
1.46,581.0
1.47,530.0
1.48,579.0
1.49,531.0
1.5,577.0
1.51,532.0
1.52,576.0
1.53,533.0
1.54,581.0
1.55,537.0
1.56,579.0
1.57,541.0
1.58,579.0
1.59,541.0
1.6,572.0
1.61,543.0
1.62,571.0
1.6300000000000001,542.0
1.6400000000000001,567.0
1.6500000000000001,541.0
1.6600000000000001,564.0
1.67,542.0
1.68,567.0
1.69,555.0
1.7,577.0
1.71,566.0
1.72,579.0
1.73,555.0
1.74,572.0
1.75,553.0
1.76,566.0
1.77,553.0
1.78,566.0
1.79,553.0
1.8,565.0
1.81,558.0
1.82,566.0
1.83,562.0
1.84,556.0
1.85,545.0
1.86,642.0
1.87,713.0
1.8800000000000001,600.0
1.8900000000000001,512.0
1.9000000000000001,531.0
1.9100000000000001,552.0
1.92,547.0
1.93,562.0
1.94,546.0
1.95,566.0
1.96,554.0
1.97,572.0
1.98,556.0
1.99,574.0
2.0,555.0
2.0100000000000002,576.0
2.02,556.0
2.0300000000000002,583.0
2.04,558.0
2.05,586.0
2.06,568.0
2.07,595.0
2.08,572.0
2.09,602.0
2.1,574.0
2.11,602.0
2.12,570.0
2.13,597.0
2.14,555.0
2.15,586.0
2.16,532.0
2.17,562.0
2.18,524.0
2.19,566.0
2.2,525.0
2.21,562.0
2.22,533.0
2.23,571.0
2.24,531.0
2.25,578.0
2.2600000000000002,542.0
2.27,590.0
2.2800000000000002,541.0
2.29,594.0
2.3000000000000003,534.0
2.31,593.0
2.32,528.0
2.33,590.0
2.34,537.0
2.35,591.0
2.36,541.0
2.37,600.0
2.38,542.0
2.39,605.0
2.4,558.0
2.41,606.0
2.42,543.0
2.43,592.0
2.44,535.0
2.45,588.0
2.46,526.0
2.47,596.0
2.48,530.0
2.49,580.0
2.5,528.0
2.5100000000000002,600.0
2.52,525.0
2.5300000000000002,579.0
2.54,499.0
2.5500000000000003,669.0
2.56,676.0
2.57,654.0
2.58,498.0
2.59,578.0
2.6,521.0
2.61,590.0
2.62,523.0
2.63,592.0
2.64,541.0
2.65,604.0
2.66,537.0
2.67,607.0
2.68,533.0
2.69,598.0
2.7,546.0
2.71,598.0
2.72,540.0
2.73,615.0
2.74,554.0
2.75,608.0
2.7600000000000002,554.0
2.77,618.0
2.7800000000000002,558.0
2.79,618.0
2.8000000000000003,558.0
2.81,617.0
2.82,547.0
2.83,595.0
2.84,542.0
2.85,580.0
2.86,534.0
2.87,580.0
2.88,522.0
2.89,585.0
2.9,520.0
2.91,580.0
2.92,525.0
2.93,576.0
2.94,528.0
2.95,586.0
2.96,526.0
2.97,586.0
2.98,536.0
2.99,571.0
3.0,546.0
3.0100000000000002,584.0
3.02,545.0
3.0300000000000002,595.0
3.04,560.0
3.0500000000000003,600.0
3.06,570.0
3.0700000000000003,586.0
3.08,544.0
3.09,569.0
3.1,536.0
3.11,567.0
3.12,545.0
3.13,571.0
3.14,541.0
3.15,574.0
3.16,543.0
3.17,567.0
3.18,545.0
3.19,561.0
3.2,518.0
3.21,700.0
3.22,689.0
3.23,601.0
3.24,521.0
3.25,570.0
3.2600000000000002,535.0
3.27,576.0
3.2800000000000002,546.0
3.29,581.0
3.3000000000000003,545.0
3.31,588.0
3.3200000000000003,556.0
3.33,577.0
3.34,557.0
3.35,586.0
3.36,553.0
3.37,583.0
3.38,562.0
3.39,589.0
3.4,566.0
3.41,594.0
3.42,579.0
3.43,591.0
3.44,585.0
3.45,584.0
3.46,580.0
3.47,577.0
3.48,569.0
3.49,567.0
3.5,554.0
3.5100000000000002,553.0
3.52,552.0
3.5300000000000002,545.0
3.54,547.0
3.5500000000000003,545.0
3.56,552.0
3.5700000000000003,545.0
3.58,556.0
3.59,555.0
3.6,560.0
3.61,550.0
3.62,567.0
3.63,555.0
3.64,565.0
3.65,552.0
3.66,571.0
3.67,559.0
3.68,588.0
3.69,571.0
3.7,590.0
3.71,557.0
3.72,580.0
3.73,546.0
3.74,577.0
3.75,547.0
3.7600000000000002,577.0
3.77,543.0
3.7800000000000002,571.0
3.79,544.0
3.8000000000000003,574.0
3.81,541.0
3.8200000000000003,576.0
3.83,522.0
3.84,572.0
3.85,700.0
3.86,705.0
3.87,518.0
3.88,559.0
3.89,535.0
3.9,569.0
3.91,536.0
3.92,581.0
3.93,537.0
3.94,585.0
3.95,543.0
3.96,590.0
3.97,536.0
3.98,588.0
3.99,542.0
4.0,597.0
4.01,546.0
4.0200000000000005,595.0
4.03,545.0
4.04,602.0
4.05,550.0
4.0600000000000005,606.0
4.07,553.0
4.08,614.0
4.09,554.0
4.1,609.0
4.11,544.0
4.12,597.0
4.13,528.0
4.14,579.0
4.15,516.0
4.16,579.0
4.17,511.0
4.18,572.0
4.19,516.0
4.2,578.0
4.21,514.0
4.22,581.0
4.23,518.0
4.24,583.0
4.25,518.0
4.26,590.0
4.2700000000000005,519.0
4.28,586.0
4.29,520.0
4.3,590.0
4.3100000000000005,523.0
4.32,586.0
4.33,524.0
4.34,591.0
4.3500000000000005,526.0
4.36,604.0
4.37,536.0
4.38,594.0
4.39,522.0
4.4,590.0
4.41,519.0
4.42,586.0
4.43,519.0
4.44,585.0
4.45,518.0
4.46,586.0
4.47,521.0
4.48,581.0
4.49,518.0
4.5,567.0
4.51,518.0
4.5200000000000005,737.0
4.53,644.0
4.54,572.0
4.55,486.0
4.5600000000000005,577.0
4.57,507.0
4.58,586.0
4.59,519.0
4.6000000000000005,582.0
4.61,525.0
4.62,583.0
4.63,526.0
4.64,586.0
4.65,532.0
4.66,586.0
4.67,533.0
4.68,588.0
4.69,536.0
4.7,594.0
4.71,542.0
4.72,598.0
4.73,547.0
4.74,601.0
4.75,555.0
4.76,601.0
4.7700000000000005,550.0
4.78,595.0
4.79,542.0
4.8,577.0
4.8100000000000005,526.0
4.82,566.0
4.83,522.0
4.84,562.0
4.8500000000000005,521.0
4.86,558.0
4.87,525.0
4.88,562.0
4.89,528.0
4.9,561.0
4.91,532.0
4.92,566.0
4.93,535.0
4.94,568.0
4.95,535.0
4.96,566.0
4.97,535.0
4.98,561.0
4.99,535.0
5.0,560.0
5.01,543.0
5.0200000000000005,556.0
5.03,545.0
5.04,559.0
5.05,546.0
5.0600000000000005,557.0
5.07,554.0
5.08,567.0
5.09,559.0
5.1000000000000005,569.0
5.11,571.0
5.12,562.0
5.13,559.0
5.14,561.0
5.15,560.0
5.16,558.0
5.17,558.0
5.18,554.0
5.19,556.0
5.2,555.0
5.21,560.0
5.22,554.0
5.23,560.0
5.24,540.0
5.25,558.0
5.26,691.0
5.2700000000000005,696.0
5.28,552.0
5.29,525.0
5.3,533.0
5.3100000000000005,558.0
5.32,537.0
5.33,569.0
5.34,544.0
5.3500000000000005,576.0
5.36,543.0
5.37,579.0
5.38,545.0
5.39,579.0
5.4,544.0
5.41,585.0
5.42,545.0
5.43,589.0
5.44,552.0
5.45,594.0
5.46,552.0
5.47,600.0
5.48,557.0
5.49,606.0
5.5,556.0
5.51,598.0
5.5200000000000005,547.0
5.53,593.0
5.54,536.0
5.55,578.0
5.5600000000000005,518.0
5.57,567.0
5.58,516.0
5.59,571.0
5.6000000000000005,518.0
5.61,571.0
5.62,517.0
5.63,577.0
5.64,516.0
5.65,578.0
5.66,521.0
5.67,580.0
5.68,525.0
5.69,585.0
5.7,519.0
5.71,585.0
5.72,525.0
5.73,589.0
5.74,519.0
5.75,583.0
5.76,523.0
5.7700000000000005,590.0
5.78,522.0
5.79,586.0
5.8,525.0
5.8100000000000005,589.0
5.82,523.0
5.83,598.0
5.84,532.0
5.8500000000000005,601.0
5.86,544.0
5.87,609.0
5.88,526.0
5.89,591.0
5.9,529.0
5.91,594.0
5.92,524.0
5.93,594.0
5.94,524.0
5.95,594.0
5.96,519.0
5.97,590.0
5.98,524.0
5.99,591.0
6.0,506.0
6.01,627.0
6.0200000000000005,692.0
6.03,692.0
6.04,492.0
6.05,577.0
6.0600000000000005,520.0
6.07,584.0
6.08,529.0
6.09,590.0
6.1000000000000005,530.0
6.11,595.0
6.12,534.0
6.13,601.0
6.140000000000001,537.0
6.15,594.0
6.16,537.0
6.17,602.0
6.18,541.0
6.19,607.0
6.2,552.0
6.21,606.0
6.22,547.0
6.23,608.0
6.24,553.0
6.25,617.0
6.26,560.0
6.2700000000000005,608.0
6.28,547.0
6.29,597.0
6.3,535.0
6.3100000000000005,581.0
6.32,526.0
6.33,576.0
6.34,526.0
6.3500000000000005,577.0
6.36,526.0
6.37,577.0
6.38,534.0
6.390000000000001,579.0
6.4,536.0
6.41,581.0
6.42,543.0
6.43,586.0
6.44,537.0
6.45,580.0
6.46,545.0
6.47,580.0
6.48,545.0
6.49,578.0
6.5,548.0
6.51,573.0
6.5200000000000005,552.0
6.53,574.0
6.54,559.0
6.55,586.0
6.5600000000000005,567.0
6.57,595.0
6.58,564.0
6.59,580.0
6.6000000000000005,562.0
6.61,572.0
6.62,556.0
6.63,569.0
6.640000000000001,558.0
6.65,567.0
6.66,560.0
6.67,565.0
6.68,565.0
6.69,561.0
6.7,560.0
6.71,536.0
6.72,670.0
6.73,722.0
6.74,610.0
6.75,519.0
6.76,553.0
6.7700000000000005,557.0
6.78,566.0
6.79,560.0
6.8,567.0
6.8100000000000005,560.0
6.82,574.0
6.83,562.0
6.84,572.0
6.8500000000000005,560.0
6.86,577.0
6.87,562.0
6.88,585.0
6.890000000000001,566.0
6.9,586.0
6.91,568.0
6.92,591.0
6.93,570.0
6.94,597.0
6.95,571.0
6.96,594.0
6.97,570.0
6.98,594.0
6.99,559.0
7.0,579.0
7.01,537.0
7.0200000000000005,568.0
7.03,528.0
7.04,562.0
7.05,526.0
7.0600000000000005,568.0
7.07,529.0
7.08,570.0
7.09,532.0
7.1000000000000005,571.0
7.11,529.0
7.12,571.0
7.13,532.0
7.140000000000001,576.0
7.15,532.0
7.16,578.0
7.17,530.0
7.18,576.0
7.19,530.0
7.2,580.0
7.21,530.0
7.22,579.0
7.23,528.0
7.24,581.0
7.25,528.0
7.26,583.0
7.2700000000000005,533.0
7.28,585.0
7.29,530.0
7.3,590.0
7.3100000000000005,535.0
7.32,595.0
7.33,543.0
7.34,600.0
7.3500000000000005,533.0
7.36,590.0
7.37,528.0
7.38,588.0
7.390000000000001,526.0
7.4,586.0
7.41,523.0
7.42,588.0
7.43,522.0
7.44,588.0
7.45,522.0
7.46,589.0
7.47,506.0
7.48,638.0
7.49,690.0
7.5,672.0
7.51,480.0
7.5200000000000005,571.0
7.53,511.0
7.54,590.0
7.55,524.0
7.5600000000000005,593.0
7.57,525.0
7.58,595.0
7.59,528.0
7.6000000000000005,596.0
7.61,528.0
7.62,600.0
7.63,533.0
7.640000000000001,602.0
7.65,534.0
7.66,606.0
7.67,540.0
7.68,609.0
7.69,549.0
7.7,616.0
7.71,552.0
7.72,619.0
7.73,553.0
7.74,615.0
7.75,546.0
7.76,602.0
7.7700000000000005,530.0
7.78,588.0
7.79,518.0
7.8,577.0
7.8100000000000005,517.0
7.82,577.0
7.83,517.0
7.84,579.0
7.8500000000000005,520.0
7.86,580.0
7.87,523.0
7.88,581.0
7.890000000000001,522.0
7.9,581.0
7.91,525.0
7.92,580.0
7.930000000000001,528.0
7.94,580.0
7.95,528.0
7.96,581.0
7.97,526.0
7.98,581.0
7.99,528.0
8.0,578.0
8.01,530.0
8.02,581.0
8.03,535.0
8.040000000000001,581.0
8.05,534.0
8.06,579.0
8.07,535.0
8.08,579.0
8.09,543.0
8.1,576.0
8.11,544.0
8.120000000000001,578.0
8.13,552.0
8.14,590.0
8.15,556.0
8.16,578.0
8.17,554.0
8.18,570.0
8.19,553.0
8.2,565.0
8.21,553.0
8.22,566.0
8.23,555.0
8.24,562.0
8.25,559.0
8.26,561.0
8.27,552.0
8.28,543.0
8.290000000000001,650.0
8.3,727.0
8.31,614.0
8.32,508.0
8.33,541.0
8.34,540.0
8.35,555.0
8.36,555.0
8.370000000000001,559.0
8.38,559.0
8.39,565.0
8.4,554.0
8.41,567.0
8.42,556.0
8.43,577.0
8.44,556.0
8.45,580.0
8.46,565.0
8.47,580.0
8.48,562.0
8.49,588.0
8.5,568.0
8.51,596.0
8.52,576.0
8.53,600.0
8.540000000000001,573.0
8.55,598.0
8.56,558.0
8.57,579.0
8.58,547.0
8.59,574.0
8.6,533.0
8.61,561.0
8.620000000000001,531.0
8.63,568.0
8.64,528.0
8.65,568.0
8.66,531.0
8.67,574.0
8.68,533.0
8.69,573.0
8.700000000000001,534.0
8.71,580.0
8.72,534.0
8.73,580.0
8.74,536.0
8.75,579.0
8.76,533.0
8.77,578.0
8.78,532.0
8.790000000000001,586.0
8.8,533.0
8.81,585.0
8.82,535.0
8.83,588.0
8.84,534.0
8.85,586.0
8.86,533.0
8.870000000000001,589.0
8.88,536.0
8.89,603.0
8.9,542.0
8.91,613.0
8.92,537.0
8.93,595.0
8.94,534.0
8.950000000000001,594.0
8.96,526.0
8.97,593.0
8.98,526.0
8.99,595.0
9.0,528.0
9.01,594.0
9.02,525.0
9.03,590.0
9.040000000000001,513.0
9.05,612.0
9.06,690.0
9.07,717.0
9.08,502.0
9.09,577.0
9.1,523.0
9.11,586.0
9.120000000000001,532.0
9.13,596.0
9.14,534.0
9.15,601.0
9.16,528.0
9.17,601.0
9.18,534.0
9.19,597.0
9.200000000000001,537.0
9.21,606.0
9.22,538.0
9.23,607.0
9.24,547.0
9.25,615.0
9.26,552.0
9.27,618.0
9.28,554.0
9.290000000000001,621.0
9.3,558.0
9.31,617.0
9.32,548.0
9.33,605.0
9.34,534.0
9.35,591.0
9.36,528.0
9.370000000000001,585.0
9.38,522.0
9.39,581.0
9.4,524.0
9.41,586.0
9.42,526.0
9.43,585.0
9.44,533.0
9.450000000000001,591.0
9.46,536.0
9.47,591.0
9.48,536.0
9.49,593.0
9.5,541.0
9.51,591.0
9.52,538.0
9.53,594.0
9.540000000000001,545.0
9.55,593.0
9.56,542.0
9.57,594.0
9.58,544.0
9.59,596.0
9.6,553.0
9.61,598.0
9.620000000000001,567.0
9.63,606.0
9.64,547.0
9.65,597.0
9.66,545.0
9.67,595.0
9.68,546.0
9.69,588.0
9.700000000000001,547.0
9.71,581.0
9.72,546.0
9.73,578.0
9.74,552.0
9.75,571.0
9.76,528.0
9.77,690.0
9.78,704.0
9.790000000000001,609.0
9.8,507.0
9.81,569.0
9.82,535.0
9.83,574.0
9.84,553.0
9.85,574.0
9.86,556.0
9.870000000000001,576.0
9.88,558.0
9.89,579.0
9.9,564.0
9.91,579.0
9.92,567.0
9.93,581.0
9.94,567.0
9.950000000000001,578.0
9.96,574.0
9.97,584.0
9.98,580.0
9.99,586.0
