Time,ADC
0.0,286.0
0.01,405.0
0.02,282.0
0.03,404.0
0.04,305.0
0.05,406.0
0.06,302.0
0.07,411.0
0.08,313.0
0.09,411.0
0.1,327.0
0.11,411.0
0.12,339.0
0.13,406.0
0.14,336.0
0.15,410.0
0.16,339.0
0.17,397.0
0.18,337.0
0.19,377.0
0.2,330.0
0.21,368.0
0.22,331.0
0.23,357.0
0.24,336.0
0.25,357.0
0.26,345.0
0.27,360.0
0.28,355.0
0.29,356.0
0.3,366.0
0.31,357.0
0.32,369.0
0.33,353.0
0.34,378.0
0.35000000000000003,346.0
0.36,385.0
0.37,348.0
0.38,397.0
0.39,344.0
0.4,393.0
0.41000000000000003,348.0
0.42,412.0
0.43,346.0
0.44,429.0
0.45,344.0
0.46,416.0
0.47000000000000003,308.0
0.48,437.0
0.49,308.0
0.5,428.0
0.51,300.0
0.52,437.0
0.53,293.0
0.54,440.0
0.55,276.0
0.56,438.0
0.5700000000000001,440.0
0.58,574.0
0.59,266.0
0.6,404.0
0.61,284.0
0.62,448.0
0.63,283.0
0.64,460.0
0.65,284.0
0.66,474.0
0.67,289.0
0.68,478.0
0.6900000000000001,282.0
0.7000000000000001,486.0
0.71,293.0
0.72,489.0
0.73,296.0
0.74,499.0
0.75,296.0
0.76,506.0
0.77,301.0
0.78,505.0
0.79,288.0
0.8,506.0
0.81,274.0
0.8200000000000001,501.0
0.8300000000000001,269.0
0.84,487.0
0.85,267.0
0.86,487.0
0.87,267.0
0.88,486.0
0.89,268.0
0.9,496.0
0.91,268.0
0.92,497.0
0.93,269.0
0.9400000000000001,499.0
0.9500000000000001,273.0
0.96,494.0
0.97,267.0
0.98,495.0
0.99,272.0
1.0,496.0
1.01,276.0
1.02,496.0
1.03,274.0
1.04,496.0
1.05,295.0
1.06,514.0
1.07,294.0
1.08,511.0
1.09,294.0
1.1,499.0
1.11,284.0
1.12,497.0
1.1300000000000001,284.0
1.1400000000000001,480.0
1.1500000000000001,276.0
1.16,475.0
1.17,284.0
1.18,475.0
1.19,283.0
1.2,546.0
1.21,461.0
1.22,502.0
1.23,238.0
1.24,439.0
1.25,289.0
1.26,459.0
1.27,307.0
1.28,457.0
1.29,316.0
1.3,457.0
1.31,321.0
1.32,456.0
1.33,329.0
1.34,446.0
1.35,336.0
1.36,457.0
1.37,346.0
1.3800000000000001,465.0
1.3900000000000001,349.0
1.4000000000000001,450.0
1.41,356.0
1.42,451.0
1.43,354.0
1.44,433.0
1.45,349.0
1.46,423.0
1.47,345.0
1.48,405.0
1.49,346.0
1.5,392.0
1.51,356.0
1.52,403.0
1.53,358.0
1.54,396.0
1.55,369.0
1.56,396.0
1.57,368.0
1.58,392.0
1.59,378.0
1.6,387.0
1.61,378.0
1.62,375.0
1.6300000000000001,388.0
1.6400000000000001,376.0
1.6500000000000001,382.0
1.6600000000000001,363.0
1.67,401.0
1.68,375.0
1.69,409.0
1.7,382.0
1.71,422.0
1.72,364.0
1.73,414.0
1.74,341.0
1.75,414.0
1.76,338.0
1.77,402.0
1.78,341.0
1.79,413.0
1.8,329.0
1.81,423.0
1.82,312.0
1.83,451.0
1.84,477.0
1.85,528.0
1.86,267.0
1.87,393.0
1.8800000000000001,307.0
1.8900000000000001,432.0
1.9000000000000001,315.0
1.9100000000000001,454.0
1.92,289.0
1.93,465.0
1.94,300.0
1.95,469.0
1.96,296.0
1.97,486.0
1.98,303.0
1.99,483.0
2.0,294.0
2.0100000000000002,493.0
2.02,297.0
2.0300000000000002,504.0
2.04,301.0
2.05,499.0
2.06,291.0
2.07,486.0
2.08,277.0
2.09,483.0
2.1,267.0
2.11,474.0
2.12,264.0
2.13,476.0
2.14,254.0
2.15,485.0
2.16,262.0
2.17,478.0
2.18,265.0
2.19,486.0
2.2,264.0
2.21,486.0
2.22,258.0
2.23,490.0
2.24,259.0
2.25,489.0
2.2600000000000002,258.0
2.27,493.0
2.2800000000000002,254.0
2.29,486.0
2.3000000000000003,264.0
2.31,505.0
2.32,278.0
2.33,512.0
2.34,273.0
2.35,493.0
2.36,269.0
2.37,478.0
2.38,255.0
2.39,483.0
2.4,268.0
2.41,480.0
2.42,259.0
2.43,468.0
2.44,253.0
2.45,456.0
2.46,344.0
2.47,630.0
2.48,293.0
2.49,394.0
2.5,248.0
2.5100000000000002,449.0
2.52,268.0
2.5300000000000002,461.0
2.54,269.0
2.5500000000000003,459.0
2.56,279.0
2.57,454.0
2.58,283.0
2.59,461.0
2.6,288.0
2.61,462.0
2.62,298.0
2.63,483.0
2.64,283.0
2.65,485.0
2.66,291.0
2.67,478.0
2.68,282.0
2.69,473.0
2.7,274.0
2.71,457.0
2.72,269.0
2.73,451.0
2.74,274.0
2.75,430.0
2.7600000000000002,262.0
2.77,446.0
2.7800000000000002,269.0
2.79,438.0
2.8000000000000003,291.0
2.81,441.0
2.82,286.0
2.83,423.0
2.84,307.0
2.85,427.0
2.86,320.0
2.87,430.0
2.88,331.0
2.89,430.0
2.9,329.0
2.91,420.0
2.92,337.0
2.93,421.0
2.94,344.0
2.95,437.0
2.96,365.0
2.97,428.0
2.98,357.0
2.99,408.0
3.0,355.0
3.0100000000000002,393.0
3.02,357.0
3.0300000000000002,388.0
3.04,357.0
3.0500000000000003,376.0
3.06,363.0
3.0700000000000003,373.0
3.08,349.0
3.09,388.0
3.1,544.0
3.11,466.0
3.12,322.0
3.13,328.0
3.14,373.0
3.15,349.0
3.16,388.0
3.17,349.0
3.18,387.0
3.19,356.0
3.2,398.0
3.21,348.0
3.22,408.0
3.23,352.0
3.24,415.0
3.25,351.0
3.2600000000000002,430.0
3.27,353.0
3.2800000000000002,436.0
3.29,349.0
3.3000000000000003,446.0
3.31,350.0
3.3200000000000003,450.0
3.33,330.0
3.34,436.0
3.35,317.0
3.36,437.0
3.37,310.0
3.38,433.0
3.39,309.0
3.4,437.0
3.41,297.0
3.42,447.0
3.43,302.0
3.44,458.0
3.45,309.0
3.46,465.0
3.47,307.0
3.48,462.0
3.49,301.0
3.5,470.0
3.5100000000000002,306.0
3.52,483.0
3.5300000000000002,298.0
3.54,482.0
3.5500000000000003,292.0
3.56,500.0
3.5700000000000003,306.0
3.58,513.0
3.59,325.0
3.6,531.0
3.61,306.0
3.62,516.0
3.63,297.0
3.64,513.0
3.65,301.0
3.66,507.0
3.67,297.0
3.68,512.0
3.69,296.0
3.7,509.0
3.71,281.0
3.72,514.0
3.73,436.0
3.74,646.0
3.75,278.0
3.7600000000000002,460.0
3.77,289.0
3.7800000000000002,510.0
3.79,300.0
3.8000000000000003,521.0
3.81,308.0
3.8200000000000003,523.0
3.83,298.0
3.84,525.0
3.85,310.0
3.86,529.0
3.87,329.0
3.88,531.0
3.89,331.0
3.9,529.0
3.91,340.0
3.92,537.0
3.93,343.0
3.94,531.0
3.95,350.0
3.96,523.0
3.97,328.0
3.98,511.0
3.99,336.0
4.0,505.0
4.01,320.0
4.0200000000000005,504.0
4.03,328.0
4.04,494.0
4.05,340.0
4.0600000000000005,501.0
4.07,340.0
4.08,490.0
4.09,343.0
4.1,495.0
4.11,349.0
4.12,489.0
4.13,351.0
4.14,486.0
4.15,357.0
4.16,483.0
4.17,365.0
4.18,480.0
4.19,364.0
4.2,471.0
4.21,381.0
4.22,472.0
4.23,406.0
4.24,475.0
4.25,406.0
4.26,458.0
4.2700000000000005,401.0
4.28,441.0
4.29,396.0
4.3,433.0
4.3100000000000005,401.0
4.32,429.0
4.33,405.0
4.34,417.0
4.3500000000000005,403.0
4.36,405.0
4.37,516.0
4.38,569.0
4.39,420.0
4.4,348.0
4.41,412.0
4.42,387.0
4.43,433.0
4.44,397.0
4.45,435.0
4.46,401.0
4.47,450.0
4.48,400.0
4.49,459.0
4.5,405.0
4.51,471.0
4.5200000000000005,413.0
4.53,482.0
4.54,406.0
4.55,487.0
4.5600000000000005,405.0
4.57,495.0
4.58,406.0
4.59,488.0
4.6000000000000005,389.0
4.61,493.0
4.62,364.0
4.63,476.0
4.64,360.0
4.65,476.0
4.66,341.0
4.67,480.0
4.68,340.0
4.69,478.0
4.7,342.0
4.71,483.0
4.72,342.0
4.73,492.0
4.74,336.0
4.75,488.0
4.76,332.0
4.7700000000000005,492.0
4.78,325.0
4.79,493.0
4.8,320.0
4.8100000000000005,495.0
4.82,316.0
4.83,498.0
4.84,310.0
4.8500000000000005,506.0
4.86,310.0
4.87,517.0
4.88,329.0
4.89,517.0
4.9,307.0
4.91,511.0
4.92,291.0
4.93,495.0
4.94,283.0
4.95,502.0
4.96,288.0
4.97,499.0
4.98,273.0
4.99,495.0
5.0,264.0
5.01,542.0
5.0200000000000005,437.0
5.03,553.0
5.04,208.0
5.05,475.0
5.0600000000000005,259.0
5.07,487.0
5.08,273.0
5.09,489.0
5.1000000000000005,269.0
5.11,500.0
5.12,278.0
5.13,496.0
5.14,288.0
5.15,501.0
5.16,284.0
5.17,502.0
5.18,284.0
5.19,506.0
5.2,300.0
5.21,505.0
5.22,298.0
5.23,498.0
5.24,292.0
5.25,486.0
5.26,281.0
5.2700000000000005,478.0
5.28,269.0
5.29,462.0
5.3,270.0
5.3100000000000005,458.0
5.32,271.0
5.33,456.0
5.34,282.0
5.3500000000000005,454.0
5.36,283.0
5.37,457.0
5.38,282.0
5.39,456.0
5.4,286.0
5.41,456.0
5.42,285.0
5.43,445.0
5.44,297.0
5.45,440.0
5.46,293.0
5.47,437.0
5.48,298.0
5.49,437.0
5.5,302.0
5.51,449.0
5.5200000000000005,321.0
5.53,449.0
5.54,320.0
5.55,427.0
5.5600000000000005,309.0
5.57,413.0
5.58,310.0
5.59,412.0
5.6000000000000005,319.0
5.61,406.0
5.62,325.0
5.63,396.0
5.64,315.0
5.65,392.0
5.66,454.0
5.67,531.0
5.68,321.0
5.69,330.0
5.7,328.0
5.71,355.0
5.72,367.0
5.73,354.0
5.74,365.0
5.75,367.0
5.76,367.0
5.7700000000000005,360.0
5.78,377.0
5.79,355.0
5.8,384.0
5.8100000000000005,357.0
5.82,405.0
5.83,350.0
5.84,403.0
5.8500000000000005,354.0
5.86,410.0
5.87,353.0
5.88,420.0
5.89,340.0
5.9,411.0
5.91,320.0
5.92,402.0
5.93,316.0
5.94,399.0
5.95,308.0
5.96,405.0
5.97,301.0
5.98,405.0
5.99,297.0
6.0,421.0
6.01,296.0
6.0200000000000005,420.0
6.03,300.0
6.04,430.0
6.05,291.0
6.0600000000000005,435.0
6.07,291.0
6.08,439.0
6.09,288.0
6.1000000000000005,441.0
6.11,280.0
6.12,447.0
6.13,279.0
6.140000000000001,454.0
6.15,278.0
6.16,458.0
6.17,294.0
6.18,480.0
6.19,296.0
6.2,470.0
6.21,284.0
6.22,469.0
6.23,271.0
6.24,463.0
6.25,272.0
6.26,469.0
6.2700000000000005,265.0
6.28,441.0
6.29,273.0
6.3,439.0
6.3100000000000005,268.0
6.32,553.0
6.33,430.0
6.34,473.0
6.3500000000000005,212.0
6.36,450.0
6.37,261.0
6.38,465.0
6.390000000000001,264.0
6.4,468.0
6.41,272.0
6.42,478.0
6.43,274.0
6.44,476.0
6.45,273.0
6.46,484.0
6.47,278.0
6.48,492.0
6.49,277.0
6.5,500.0
6.51,282.0
6.5200000000000005,499.0
6.53,277.0
6.54,504.0
6.55,276.0
6.5600000000000005,494.0
6.57,271.0
6.58,485.0
6.59,255.0
6.6000000000000005,477.0
6.61,258.0
6.62,474.0
6.63,258.0
6.640000000000001,485.0
6.65,262.0
6.66,484.0
6.67,268.0
6.68,485.0
6.69,272.0
6.7,487.0
6.71,273.0
6.72,478.0
6.73,269.0
6.74,480.0
6.75,277.0
6.76,468.0
6.7700000000000005,273.0
6.78,480.0
6.79,278.0
6.8,470.0
6.8100000000000005,277.0
6.82,473.0
6.83,284.0
6.84,478.0
6.8500000000000005,309.0
6.86,472.0
6.87,290.0
6.88,466.0
6.890000000000001,288.0
6.9,454.0
6.91,280.0
6.92,454.0
6.93,282.0
6.94,449.0
6.95,286.0
6.96,428.0
6.97,280.0
6.98,485.0
6.99,462.0
7.0,497.0
7.01,244.0
7.0200000000000005,396.0
7.03,303.0
7.04,408.0
7.05,325.0
7.0600000000000005,405.0
7.07,330.0
7.08,408.0
7.09,344.0
7.1000000000000005,408.0
7.11,348.0
7.12,410.0
7.13,355.0
7.140000000000001,411.0
7.15,367.0
7.16,413.0
7.17,374.0
7.18,415.0
7.19,381.0
7.2,405.0
7.21,375.0
7.22,398.0
7.23,367.0
7.24,380.0
7.25,386.0
7.26,354.0
7.2700000000000005,380.0
7.28,349.0
7.29,387.0
7.3,339.0
7.3100000000000005,401.0
7.32,344.0
7.33,406.0
7.34,340.0
7.3500000000000005,415.0
7.36,340.0
7.37,422.0
7.38,340.0
7.390000000000001,430.0
7.4,328.0
7.41,448.0
7.42,336.0
7.43,441.0
7.44,334.0
7.45,448.0
7.46,330.0
7.47,458.0
7.48,331.0
7.49,474.0
7.5,348.0
7.51,487.0
7.5200000000000005,337.0
7.53,476.0
7.54,320.0
7.55,470.0
7.5600000000000005,313.0
7.57,469.0
7.58,312.0
7.59,469.0
7.6000000000000005,302.0
7.61,470.0
7.62,292.0
7.63,466.0
7.640000000000001,358.0
7.65,644.0
7.66,350.0
7.67,416.0
7.68,268.0
7.69,475.0
7.7,292.0
7.71,489.0
7.72,282.0
7.73,496.0
7.74,292.0
7.75,497.0
7.76,293.0
7.7700000000000005,496.0
7.78,297.0
7.79,504.0
7.8,292.0
7.8100000000000005,514.0
7.82,294.0
7.83,523.0
7.84,297.0
7.8500000000000005,514.0
7.86,295.0
7.87,518.0
7.88,288.0
7.890000000000001,506.0
7.9,273.0
7.91,494.0
7.92,267.0
7.930000000000001,492.0
7.94,268.0
7.95,486.0
7.96,267.0
7.97,485.0
7.98,268.0
7.99,492.0
8.0,269.0
8.01,495.0
8.02,269.0
8.03,483.0
8.040000000000001,272.0
8.05,480.0
8.06,281.0
8.07,478.0
8.08,269.0
8.09,478.0
8.1,276.0
8.11,473.0
8.120000000000001,269.0
8.13,475.0
8.14,284.0
8.15,489.0
8.16,301.0
8.17,477.0
8.18,280.0
8.19,468.0
8.2,280.0
8.21,458.0
8.22,280.0
8.23,450.0
8.24,288.0
8.25,449.0
8.26,277.0
8.27,437.0
8.28,267.0
8.290000000000001,540.0
8.3,446.0
8.31,449.0
8.32,229.0
8.33,428.0
8.34,278.0
8.35,433.0
8.36,306.0
8.370000000000001,425.0
8.38,296.0
8.39,429.0
8.4,310.0
8.41,426.0
8.42,315.0
8.43,429.0
8.44,328.0
8.45,433.0
8.46,325.0
8.47,416.0
8.48,337.0
8.49,415.0
8.5,353.0
8.51,394.0
8.52,360.0
8.53,378.0
8.540000000000001,345.0
8.55,361.0
8.56,332.0
8.57,349.0
8.58,333.0
8.59,348.0
8.6,344.0
8.61,340.0
8.620000000000001,349.0
8.63,340.0
8.64,353.0
8.65,330.0
8.66,374.0
8.67,336.0
8.68,365.0
8.69,314.0
8.700000000000001,394.0
8.71,316.0
8.72,394.0
8.73,313.0
8.74,404.0
8.75,309.0
8.76,401.0
8.77,307.0
8.78,404.0
8.790000000000001,327.0
8.8,437.0
8.81,319.0
8.82,435.0
8.83,306.0
8.84,435.0
8.85,288.0
8.86,427.0
8.870000000000001,294.0
8.88,426.0
8.89,281.0
8.9,426.0
8.91,284.0
8.92,429.0
8.93,316.0
8.94,586.0
8.950000000000001,327.0
8.96,375.0
8.97,249.0
8.98,422.0
8.99,270.0
9.0,445.0
9.01,241.0
9.02,466.0
9.03,276.0
9.040000000000001,470.0
9.05,264.0
9.06,460.0
9.07,281.0
9.08,474.0
9.09,277.0
9.1,475.0
9.11,295.0
9.120000000000001,480.0
9.13,289.0
9.14,487.0
9.15,283.0
9.16,488.0
9.17,277.0
9.18,469.0
9.19,260.0
9.200000000000001,472.0
9.21,254.0
9.22,464.0
9.23,270.0
9.24,465.0
9.25,258.0
9.26,478.0
9.27,265.0
9.28,487.0
9.290000000000001,283.0
9.3,486.0
9.31,278.0
9.32,492.0
9.33,291.0
9.34,501.0
9.35,291.0
9.36,501.0
9.370000000000001,301.0
9.38,493.0
9.39,308.0
9.4,514.0
9.41,320.0
9.42,531.0
9.43,327.0
9.44,517.0
9.450000000000001,310.0
9.46,500.0
9.47,313.0
9.48,498.0
9.49,317.0
9.5,496.0
9.51,326.0
9.52,505.0
9.53,327.0
9.540000000000001,488.0
9.55,344.0
9.56,633.0
9.57,433.0
9.58,450.0
9.59,307.0
9.6,494.0
9.61,344.0
9.620000000000001,500.0
9.63,344.0
9.64,496.0
9.65,363.0
9.66,508.0
9.67,367.0
9.68,497.0
9.69,376.0
9.700000000000001,516.0
9.71,389.0
9.72,509.0
9.73,397.0
9.74,513.0
9.75,405.0
9.76,504.0
9.77,405.0
9.78,499.0
9.790000000000001,404.0
9.8,480.0
9.81,388.0
9.82,469.0
9.83,398.0
9.84,463.0
9.85,392.0
9.86,460.0
9.870000000000001,394.0
9.88,454.0
9.89,413.0
9.9,439.0
9.91,436.0
9.92,436.0
9.93,437.0
9.94,433.0
9.950000000000001,447.0
9.96,430.0
9.97,450.0
9.98,435.0
9.99,453.0
