Time,ADC
0.0,985.0
0.01,1024.0
0.02,1024.0
0.03,1024.0
0.04,1024.0
0.05,1024.0
0.06,1024.0
0.07,1024.0
0.08,1024.0
0.09,1024.0
0.1,1024.0
0.11,1024.0
0.12,1024.0
0.13,1024.0
0.14,1024.0
0.15,1024.0
0.16,1024.0
0.17,1024.0
0.18,1024.0
0.19,979.0
0.2,932.0
0.21,932.0
0.22,860.0
0.23,840.0
0.24,749.0
0.25,806.0
0.26,894.0
0.27,739.0
0.28,571.0
0.29,574.0
0.3,542.0
0.31,509.0
0.32,505.0
0.33,456.0
0.34,470.0
0.35000000000000003,426.0
0.36,449.0
0.37,388.0
0.38,426.0
0.39,341.0
0.4,386.0
0.41000000000000003,319.0
0.42,350.0
0.43,259.0
0.44,291.0
0.45,216.0
0.46,265.0
0.47000000000000003,183.0
0.48,242.0
0.49,162.0
0.5,216.0
0.51,133.0
0.52,211.0
0.53,123.0
0.54,207.0
0.55,135.0
0.56,223.0
0.5700000000000001,136.0
0.58,225.0
0.59,146.0
0.6,224.0
0.61,130.0
0.62,228.0
0.63,121.0
0.64,228.0
0.65,114.0
0.66,198.0
0.67,89.0
0.68,168.0
0.6900000000000001,37.0
0.7000000000000001,137.0
0.71,16.0
0.72,77.0
0.73,16.0
0.74,38.0
0.75,16.0
0.76,16.0
0.77,16.0
0.78,19.0
0.79,78.0
0.8,33.0
0.81,16.0
0.8200000000000001,16.0
0.8300000000000001,16.0
0.84,16.0
0.85,16.0
0.86,16.0
0.87,16.0
0.88,16.0
0.89,16.0
0.9,16.0
0.91,16.0
0.92,16.0
0.93,16.0
0.9400000000000001,16.0
0.9500000000000001,16.0
0.96,16.0
0.97,16.0
0.98,16.0
0.99,16.0
1.0,16.0
1.01,16.0
1.02,16.0
1.03,16.0
1.04,16.0
1.05,16.0
1.06,16.0
1.07,16.0
1.08,16.0
1.09,16.0
1.1,80.0
1.11,33.0
1.12,163.0
1.1300000000000001,65.0
1.1400000000000001,208.0
1.1500000000000001,100.0
1.16,262.0
1.17,154.0
1.18,303.0
1.19,194.0
1.2,310.0
1.21,214.0
1.22,325.0
1.23,224.0
1.24,344.0
1.25,244.0
1.26,373.0
1.27,267.0
1.28,390.0
1.29,283.0
1.3,367.0
1.31,363.0
1.32,604.0
1.33,394.0
1.34,360.0
1.35,322.0
1.36,432.0
1.37,346.0
1.3800000000000001,449.0
1.3900000000000001,349.0
1.4000000000000001,445.0
1.41,366.0
1.42,452.0
1.43,377.0
1.44,451.0
1.45,367.0
1.46,449.0
1.47,365.0
1.48,429.0
1.49,361.0
1.5,412.0
1.51,322.0
1.52,374.0
1.53,288.0
1.54,344.0
1.55,254.0
1.56,297.0
1.57,214.0
1.58,254.0
1.59,195.0
1.6,220.0
1.61,149.0
1.62,184.0
1.6300000000000001,128.0
1.6400000000000001,161.0
1.6500000000000001,104.0
1.6600000000000001,130.0
1.67,79.0
1.68,108.0
1.69,69.0
1.7,86.0
1.71,49.0
1.72,58.0
1.73,34.0
1.74,67.0
1.75,42.0
1.76,62.0
1.77,34.0
1.78,45.0
1.79,37.0
1.8,30.0
1.81,17.0
1.82,17.0
1.83,24.0
1.84,17.0
1.85,25.0
1.86,17.0
1.87,55.0
1.8800000000000001,41.0
1.8900000000000001,198.0
1.9000000000000001,221.0
1.9100000000000001,88.0
1.92,16.0
1.93,79.0
1.94,58.0
1.95,109.0
1.96,69.0
1.97,127.0
1.98,98.0
1.99,149.0
2.0,98.0
2.0100000000000002,158.0
2.02,105.0
2.0300000000000002,184.0
2.04,112.0
2.05,195.0
2.06,135.0
2.07,211.0
2.08,158.0
2.09,223.0
2.1,153.0
2.11,240.0
2.12,158.0
2.13,245.0
2.14,171.0
2.15,252.0
2.16,169.0
2.17,256.0
2.18,171.0
2.19,266.0
2.2,196.0
2.21,277.0
2.22,189.0
2.23,300.0
2.24,208.0
2.25,310.0
2.2600000000000002,223.0
2.27,319.0
2.2800000000000002,213.0
2.29,340.0
2.3000000000000003,214.0
2.31,337.0
2.32,231.0
2.33,351.0
2.34,252.0
2.35,374.0
2.36,264.0
2.37,386.0
2.38,264.0
2.39,378.0
2.4,262.0
2.41,375.0
2.42,257.0
2.43,385.0
2.44,266.0
2.45,392.0
2.46,278.0
2.47,394.0
2.48,264.0
2.49,438.0
2.5,477.0
2.5100000000000002,498.0
2.52,237.0
2.5300000000000002,409.0
2.54,297.0
2.5500000000000003,413.0
2.56,302.0
2.57,428.0
2.58,308.0
2.59,436.0
2.6,317.0
2.61,448.0
2.62,328.0
2.63,447.0
2.64,339.0
2.65,456.0
2.66,339.0
2.67,465.0
2.68,351.0
2.69,456.0
2.7,340.0
2.71,457.0
2.72,346.0
2.73,456.0
2.74,350.0
2.75,457.0
2.7600000000000002,353.0
2.77,448.0
2.7800000000000002,354.0
2.79,459.0
2.8000000000000003,354.0
2.81,451.0
2.82,363.0
2.83,458.0
2.84,365.0
2.85,461.0
2.86,364.0
2.87,454.0
2.88,369.0
2.89,451.0
2.9,377.0
2.91,440.0
2.92,378.0
2.93,437.0
2.94,377.0
2.95,437.0
2.96,391.0
2.97,444.0
2.98,406.0
2.99,457.0
3.0,400.0
3.0100000000000002,445.0
3.02,389.0
3.0300000000000002,430.0
3.04,382.0
3.0500000000000003,423.0
3.06,387.0
3.0700000000000003,412.0
3.08,381.0
3.09,410.0
3.1,368.0
3.11,405.0
3.12,465.0
3.13,583.0
3.14,434.0
3.15,341.0
3.16,382.0
3.17,387.0
3.18,387.0
3.19,398.0
3.2,390.0
3.21,394.0
3.22,394.0
3.23,390.0
3.24,402.0
3.25,397.0
3.2600000000000002,401.0
3.27,405.0
3.2800000000000002,409.0
3.29,396.0
3.3000000000000003,425.0
3.31,385.0
3.3200000000000003,426.0
3.33,378.0
3.34,425.0
3.35,369.0
3.36,427.0
3.37,361.0
3.38,415.0
3.39,357.0
3.4,413.0
3.41,346.0
3.42,409.0
3.43,350.0
3.44,423.0
3.45,350.0
3.46,422.0
3.47,349.0
3.48,422.0
3.49,349.0
3.5,415.0
3.5100000000000002,346.0
3.52,426.0
3.5300000000000002,338.0
3.54,427.0
3.5500000000000003,334.0
3.56,421.0
3.5700000000000003,327.0
3.58,422.0
3.59,326.0
3.6,427.0
3.61,340.0
3.62,440.0
3.63,349.0
3.64,448.0
3.65,339.0
3.66,436.0
3.67,321.0
3.68,424.0
3.69,314.0
3.7,433.0
3.71,313.0
3.72,416.0
3.73,312.0
3.74,425.0
3.75,298.0
3.7600000000000002,423.0
3.77,453.0
3.7800000000000002,573.0
3.79,283.0
3.8000000000000003,373.0
3.81,309.0
3.8200000000000003,408.0
3.83,300.0
3.84,421.0
3.85,294.0
3.86,422.0
3.87,309.0
3.88,427.0
3.89,304.0
3.9,435.0
3.91,300.0
3.92,439.0
3.93,303.0
3.94,449.0
3.95,297.0
3.96,459.0
3.97,281.0
3.98,451.0
3.99,283.0
4.0,453.0
4.01,273.0
4.0200000000000005,446.0
4.03,277.0
4.04,438.0
4.05,272.0
4.0600000000000005,434.0
4.07,269.0
4.08,429.0
4.09,277.0
4.1,438.0
4.11,280.0
4.12,440.0
4.13,289.0
4.14,429.0
4.15,288.0
4.16,432.0
4.17,282.0
4.18,436.0
4.19,290.0
4.2,436.0
4.21,294.0
4.22,436.0
4.23,293.0
4.24,435.0
4.25,306.0
4.26,447.0
4.2700000000000005,321.0
4.28,449.0
4.29,310.0
4.3,433.0
4.3100000000000005,306.0
4.32,425.0
4.33,298.0
4.34,429.0
4.3500000000000005,307.0
4.36,416.0
4.37,315.0
4.38,421.0
4.39,308.0
4.4,474.0
4.41,502.0
4.42,470.0
4.43,273.0
4.44,396.0
4.45,324.0
4.46,408.0
4.47,341.0
4.48,409.0
4.49,348.0
4.5,412.0
4.51,355.0
4.5200000000000005,405.0
4.53,364.0
4.54,416.0
4.55,373.0
4.5600000000000005,418.0
4.57,379.0
4.58,421.0
4.59,391.0
4.6000000000000005,408.0
4.61,386.0
4.62,408.0
4.63,392.0
4.64,403.0
4.65,386.0
4.66,392.0
4.67,386.0
4.68,387.0
4.69,401.0
4.7,402.0
4.71,436.0
4.72,398.0
4.73,447.0
4.74,399.0
4.75,449.0
4.76,398.0
4.7700000000000005,449.0
4.78,393.0
4.79,447.0
4.8,388.0
4.8100000000000005,447.0
4.82,382.0
4.83,448.0
4.84,375.0
4.8500000000000005,451.0
4.86,378.0
4.87,468.0
4.88,386.0
4.89,477.0
4.9,384.0
4.91,466.0
4.92,369.0
4.93,461.0
4.94,356.0
4.95,459.0
4.96,353.0
4.97,460.0
4.98,349.0
4.99,459.0
5.0,339.0
5.01,459.0
5.0200000000000005,464.0
5.03,626.0
5.04,346.0
5.05,412.0
5.0600000000000005,338.0
5.07,463.0
5.08,337.0
5.09,473.0
5.1000000000000005,341.0
5.11,474.0
5.12,341.0
5.13,486.0
5.14,338.0
5.15,483.0
5.16,340.0
5.17,492.0
5.18,344.0
5.19,493.0
5.2,350.0
5.21,498.0
5.22,336.0
5.23,494.0
5.24,338.0
5.25,487.0
5.26,331.0
5.2700000000000005,486.0
5.28,322.0
5.29,480.0
5.3,316.0
5.3100000000000005,472.0
5.32,309.0
5.33,474.0
5.34,315.0
5.3500000000000005,475.0
5.36,317.0
5.37,480.0
5.38,318.0
5.39,478.0
5.4,316.0
5.41,474.0
5.42,312.0
5.43,475.0
5.44,315.0
5.45,468.0
5.46,317.0
5.47,466.0
5.48,319.0
5.49,480.0
5.5,339.0
5.51,489.0
5.5200000000000005,326.0
5.53,474.0
5.54,319.0
5.55,458.0
5.5600000000000005,307.0
5.57,459.0
5.58,306.0
5.59,464.0
5.6000000000000005,305.0
5.61,453.0
5.62,288.0
5.63,451.0
5.64,424.0
5.65,597.0
5.66,303.0
5.67,393.0
5.68,290.0
5.69,437.0
5.7,298.0
5.71,437.0
5.72,298.0
5.73,447.0
5.74,307.0
5.75,437.0
5.76,302.0
5.7700000000000005,445.0
5.78,310.0
5.79,439.0
5.8,315.0
5.8100000000000005,439.0
5.82,310.0
5.83,439.0
5.84,313.0
5.8500000000000005,427.0
5.86,309.0
5.87,427.0
5.88,303.0
5.89,415.0
5.9,301.0
5.91,401.0
5.92,289.0
5.93,394.0
5.94,293.0
5.95,396.0
5.96,295.0
5.97,390.0
5.98,309.0
5.99,382.0
6.0,315.0
6.01,369.0
6.0200000000000005,320.0
6.03,378.0
6.04,320.0
6.05,372.0
6.0600000000000005,317.0
6.07,376.0
6.08,320.0
6.09,373.0
6.1000000000000005,343.0
6.11,386.0
6.12,349.0
6.13,368.0
6.140000000000001,341.0
6.15,358.0
6.16,337.0
6.17,349.0
6.18,330.0
6.19,349.0
6.2,336.0
6.21,340.0
6.22,329.0
6.23,318.0
6.24,360.0
6.25,492.0
6.26,475.0
6.2700000000000005,272.0
6.28,320.0
6.29,312.0
6.3,350.0
6.3100000000000005,316.0
6.32,363.0
6.33,310.0
6.34,369.0
6.3500000000000005,316.0
6.36,382.0
6.37,316.0
6.38,379.0
6.390000000000001,319.0
6.4,398.0
6.41,321.0
6.42,397.0
6.43,320.0
6.44,409.0
6.45,310.0
6.46,401.0
6.47,309.0
6.48,397.0
6.49,298.0
6.5,402.0
6.51,289.0
6.5200000000000005,396.0
6.53,290.0
6.54,390.0
6.55,283.0
6.5600000000000005,398.0
6.57,285.0
6.58,402.0
6.59,284.0
6.6000000000000005,409.0
6.61,286.0
6.62,414.0
6.63,288.0
6.640000000000001,412.0
6.65,281.0
6.66,413.0
6.67,282.0
6.68,412.0
6.69,288.0
6.7,433.0
6.71,291.0
6.72,449.0
6.73,296.0
6.74,430.0
6.75,274.0
6.76,422.0
6.7700000000000005,271.0
6.78,415.0
6.79,264.0
6.8,416.0
6.8100000000000005,262.0
6.82,420.0
6.83,261.0
6.84,405.0
6.8500000000000005,348.0
6.86,595.0
6.87,303.0
6.88,361.0
6.890000000000001,250.0
6.9,413.0
6.91,259.0
6.92,418.0
6.93,262.0
6.94,427.0
6.95,267.0
6.96,427.0
6.97,268.0
6.98,433.0
6.99,273.0
7.0,428.0
7.01,277.0
7.0200000000000005,440.0
7.03,282.0
7.04,437.0
7.05,280.0
7.0600000000000005,429.0
7.07,282.0
7.08,425.0
7.09,269.0
7.1000000000000005,416.0
7.11,272.0
7.12,412.0
7.13,265.0
7.140000000000001,405.0
7.15,268.0
7.16,403.0
7.17,277.0
7.18,405.0
7.19,280.0
7.2,404.0
7.21,276.0
7.22,402.0
7.23,284.0
7.24,398.0
7.25,274.0
7.26,393.0
7.2700000000000005,283.0
7.28,394.0
7.29,280.0
7.3,394.0
7.3100000000000005,296.0
7.32,411.0
7.33,312.0
7.34,398.0
7.3500000000000005,301.0
7.36,388.0
7.37,293.0
7.38,382.0
7.390000000000001,297.0
7.4,376.0
7.41,294.0
7.42,375.0
7.43,297.0
7.44,356.0
7.45,292.0
7.46,506.0
7.47,456.0
7.48,355.0
7.49,252.0
7.5,363.0
7.51,292.0
7.5200000000000005,357.0
7.53,306.0
7.54,353.0
7.55,310.0
7.5600000000000005,355.0
7.57,326.0
7.58,343.0
7.59,338.0
7.6000000000000005,341.0
7.61,348.0
7.62,338.0
7.63,358.0
7.640000000000001,329.0
7.65,367.0
7.66,328.0
7.67,365.0
7.68,321.0
7.69,366.0
7.7,315.0
7.71,360.0
7.72,305.0
7.73,352.0
7.74,290.0
7.75,354.0
7.76,292.0
7.7700000000000005,360.0
7.78,292.0
7.79,367.0
7.8,289.0
7.8100000000000005,368.0
7.82,283.0
7.83,373.0
7.84,282.0
7.8500000000000005,372.0
7.86,283.0
7.87,374.0
7.88,274.0
7.890000000000001,382.0
7.9,271.0
7.91,384.0
7.92,286.0
7.930000000000001,397.0
7.94,296.0
7.95,403.0
7.96,281.0
7.97,400.0
7.98,274.0
7.99,385.0
8.0,262.0
8.01,393.0
8.02,265.0
8.03,392.0
8.040000000000001,261.0
8.05,390.0
8.06,246.0
8.07,474.0
8.08,437.0
8.09,446.0
8.1,194.0
8.11,386.0
8.120000000000001,247.0
8.13,402.0
8.14,253.0
8.15,401.0
8.16,261.0
8.17,408.0
8.18,256.0
8.19,415.0
8.2,266.0
8.21,416.0
8.22,267.0
8.23,429.0
8.24,272.0
8.25,427.0
8.26,269.0
8.27,430.0
8.28,272.0
8.290000000000001,425.0
8.3,271.0
8.31,424.0
8.32,259.0
8.33,410.0
8.34,256.0
8.35,411.0
8.36,253.0
8.370000000000001,411.0
8.38,258.0
8.39,409.0
8.4,262.0
8.41,411.0
8.42,264.0
8.43,412.0
8.44,264.0
8.45,405.0
8.46,261.0
8.47,413.0
8.48,267.0
8.49,404.0
8.5,269.0
8.51,401.0
8.52,267.0
8.53,405.0
8.540000000000001,278.0
8.55,416.0
8.56,289.0
8.57,413.0
8.58,282.0
8.59,396.0
8.6,268.0
8.61,392.0
8.620000000000001,272.0
8.63,387.0
8.64,272.0
8.65,389.0
8.66,273.0
8.67,379.0
8.68,268.0
8.69,432.0
8.700000000000001,445.0
8.71,460.0
8.72,224.0
8.73,361.0
8.74,277.0
8.75,375.0
8.76,290.0
8.77,376.0
8.78,293.0
8.790000000000001,384.0
8.8,300.0
8.81,382.0
8.82,302.0
8.83,382.0
8.84,318.0
8.85,382.0
8.86,317.0
8.870000000000001,388.0
8.88,328.0
8.89,385.0
8.9,330.0
8.91,382.0
8.92,336.0
8.93,374.0
8.94,327.0
8.950000000000001,367.0
8.96,328.0
8.97,365.0
8.98,333.0
8.99,363.0
9.0,336.0
9.01,367.0
9.02,349.0
9.03,369.0
9.040000000000001,354.0
9.05,365.0
9.06,366.0
9.07,373.0
9.08,372.0
9.09,369.0
9.1,369.0
9.11,354.0
9.120000000000001,393.0
9.13,353.0
9.14,396.0
9.15,363.0
9.16,414.0
9.17,381.0
9.18,430.0
9.19,375.0
9.200000000000001,436.0
9.21,361.0
9.22,427.0
9.23,360.0
9.24,427.0
9.25,355.0
9.26,435.0
9.27,355.0
9.28,439.0
9.290000000000001,350.0
9.3,435.0
9.31,408.0
9.32,620.0
9.33,426.0
9.34,392.0
9.35,330.0
9.36,453.0
9.370000000000001,356.0
9.38,465.0
9.39,362.0
9.4,477.0
9.41,354.0
9.42,485.0
9.43,365.0
9.44,488.0
9.450000000000001,377.0
9.46,505.0
9.47,378.0
9.48,517.0
9.49,376.0
9.5,522.0
9.51,374.0
9.52,518.0
9.53,368.0
9.540000000000001,520.0
9.55,357.0
9.56,531.0
9.57,331.0
9.58,532.0
9.59,326.0
9.6,532.0
9.61,317.0
9.620000000000001,535.0
9.63,315.0
9.64,546.0
9.65,317.0
9.66,554.0
9.67,322.0
9.68,546.0
9.69,322.0
9.700000000000001,553.0
9.71,317.0
9.72,545.0
9.73,327.0
9.74,535.0
9.75,310.0
9.76,542.0
9.77,317.0
9.78,552.0
9.790000000000001,329.0
9.8,569.0
9.81,326.0
9.82,555.0
9.83,314.0
9.84,534.0
9.85,309.0
9.86,532.0
9.870000000000001,307.0
9.88,533.0
9.89,308.0
9.9,521.0
9.91,294.0
9.92,513.0
9.93,355.0
9.94,705.0
9.950000000000001,386.0
9.96,469.0
9.97,290.0
9.98,512.0
9.99,308.0
