Time,ADC
0.0,639.0
0.01,648.0
0.02,642.0
0.03,658.0
0.04,654.0
0.05,657.0
0.06,663.0
0.07,662.0
0.08,655.0
0.09,654.0
0.1,648.0
0.11,650.0
0.12,639.0
0.13,634.0
0.14,636.0
0.15,633.0
0.16,636.0
0.17,638.0
0.18,632.0
0.19,639.0
0.2,639.0
0.21,636.0
0.22,636.0
0.23,638.0
0.24,639.0
0.25,644.0
0.26,636.0
0.27,638.0
0.28,639.0
0.29,644.0
0.3,638.0
0.31,645.0
0.32,648.0
0.33,662.0
0.34,664.0
0.35000000000000003,660.0
0.36,648.0
0.37,643.0
0.38,630.0
0.39,638.0
0.4,626.0
0.41000000000000003,626.0
0.42,626.0
0.43,628.0
0.44,621.0
0.45,619.0
0.46,612.0
0.47000000000000003,640.0
0.48,780.0
0.49,709.0
0.5,570.0
0.51,580.0
0.52,601.0
0.53,607.0
0.54,617.0
0.55,612.0
0.56,615.0
0.5700000000000001,619.0
0.58,612.0
0.59,627.0
0.6,619.0
0.61,625.0
0.62,625.0
0.63,629.0
0.64,619.0
0.65,627.0
0.66,618.0
0.67,627.0
0.68,626.0
0.6900000000000001,619.0
0.7000000000000001,621.0
0.71,617.0
0.72,609.0
0.73,608.0
0.74,600.0
0.75,594.0
0.76,586.0
0.77,589.0
0.78,591.0
0.79,586.0
0.8,586.0
0.81,593.0
0.8200000000000001,576.0
0.8300000000000001,585.0
0.84,581.0
0.85,585.0
0.86,585.0
0.87,585.0
0.88,580.0
0.89,585.0
0.9,574.0
0.91,581.0
0.92,578.0
0.93,578.0
0.9400000000000001,585.0
0.9500000000000001,594.0
0.96,596.0
0.97,604.0
0.98,594.0
0.99,586.0
1.0,578.0
1.01,576.0
1.02,574.0
1.03,566.0
1.04,566.0
1.05,566.0
1.06,573.0
1.07,579.0
1.08,579.0
1.09,573.0
1.1,572.0
1.11,709.0
1.12,715.0
1.1300000000000001,562.0
1.1400000000000001,522.0
1.1500000000000001,560.0
1.16,568.0
1.17,577.0
1.18,577.0
1.19,577.0
1.2,579.0
1.21,579.0
1.22,580.0
1.23,584.0
1.24,584.0
1.25,584.0
1.26,588.0
1.27,589.0
1.28,593.0
1.29,594.0
1.3,595.0
1.31,596.0
1.32,601.0
1.33,594.0
1.34,595.0
1.35,591.0
1.36,584.0
1.37,571.0
1.3800000000000001,571.0
1.3900000000000001,567.0
1.4000000000000001,562.0
1.41,556.0
1.42,558.0
1.43,559.0
1.44,560.0
1.45,558.0
1.46,560.0
1.47,559.0
1.48,562.0
1.49,556.0
1.5,558.0
1.51,558.0
1.52,558.0
1.53,552.0
1.54,559.0
1.55,556.0
1.56,558.0
1.57,554.0
1.58,558.0
1.59,558.0
1.6,550.0
1.61,554.0
1.62,558.0
1.6300000000000001,564.0
1.6400000000000001,580.0
1.6500000000000001,572.0
1.6600000000000001,567.0
1.67,556.0
1.68,550.0
1.69,543.0
1.7,544.0
1.71,536.0
1.72,535.0
1.73,530.0
1.74,526.0
1.75,528.0
1.76,518.0
1.77,521.0
1.78,663.0
1.79,657.0
1.8,513.0
1.81,459.0
1.82,507.0
1.83,504.0
1.84,516.0
1.85,513.0
1.86,519.0
1.87,512.0
1.8800000000000001,521.0
1.8900000000000001,520.0
1.9000000000000001,528.0
1.9100000000000001,522.0
1.92,532.0
1.93,526.0
1.94,532.0
1.95,535.0
1.96,545.0
1.97,542.0
1.98,547.0
1.99,545.0
2.0,550.0
2.0100000000000002,544.0
2.02,546.0
2.0300000000000002,541.0
2.04,543.0
2.05,526.0
2.06,528.0
2.07,522.0
2.08,525.0
2.09,514.0
2.1,516.0
2.11,522.0
2.12,525.0
2.13,519.0
2.14,523.0
2.15,524.0
2.16,526.0
2.17,525.0
2.18,530.0
2.19,525.0
2.2,531.0
2.21,528.0
2.22,533.0
2.23,531.0
2.24,536.0
2.25,534.0
2.2600000000000002,535.0
2.27,535.0
2.2800000000000002,536.0
2.29,532.0
2.3000000000000003,535.0
2.31,532.0
2.32,541.0
2.33,547.0
2.34,564.0
2.35,562.0
2.36,550.0
2.37,541.0
2.38,541.0
2.39,534.0
2.4,531.0
2.41,528.0
2.42,525.0
2.43,524.0
2.44,532.0
2.45,523.0
2.46,525.0
2.47,517.0
2.48,555.0
2.49,704.0
2.5,618.0
2.5100000000000002,483.0
2.52,498.0
2.5300000000000002,520.0
2.54,525.0
2.5500000000000003,532.0
2.56,535.0
2.57,534.0
2.58,537.0
2.59,540.0
2.6,537.0
2.61,545.0
2.62,552.0
2.63,556.0
2.64,554.0
2.65,555.0
2.66,559.0
2.67,568.0
2.68,570.0
2.69,572.0
2.7,567.0
2.71,572.0
2.72,571.0
2.73,569.0
2.74,567.0
2.75,566.0
2.7600000000000002,559.0
2.77,552.0
2.7800000000000002,553.0
2.79,552.0
2.8000000000000003,545.0
2.81,555.0
2.82,549.0
2.83,552.0
2.84,547.0
2.85,554.0
2.86,560.0
2.87,553.0
2.88,549.0
2.89,552.0
2.9,555.0
2.91,560.0
2.92,556.0
2.93,556.0
2.94,554.0
2.95,558.0
2.96,557.0
2.97,559.0
2.98,556.0
2.99,562.0
3.0,556.0
3.0100000000000002,562.0
3.02,562.0
3.0300000000000002,574.0
3.04,581.0
3.0500000000000003,586.0
3.06,577.0
3.0700000000000003,574.0
3.08,558.0
3.09,561.0
3.1,561.0
3.11,559.0
3.12,554.0
3.13,559.0
3.14,554.0
3.15,553.0
3.16,543.0
3.17,548.0
3.18,646.0
3.19,701.0
3.2,560.0
3.21,513.0
3.22,530.0
3.23,542.0
3.24,556.0
3.25,562.0
3.2600000000000002,558.0
3.27,562.0
3.2800000000000002,560.0
3.29,572.0
3.3000000000000003,568.0
3.31,574.0
3.3200000000000003,566.0
3.33,579.0
3.34,580.0
3.35,585.0
3.36,581.0
3.37,586.0
3.38,589.0
3.39,590.0
3.4,586.0
3.41,589.0
3.42,586.0
3.43,581.0
3.44,574.0
3.45,572.0
3.46,560.0
3.47,562.0
3.48,556.0
3.49,556.0
3.5,555.0
3.5100000000000002,561.0
3.52,556.0
3.5300000000000002,562.0
3.54,554.0
3.5500000000000003,567.0
3.56,560.0
3.5700000000000003,568.0
3.58,564.0
3.59,571.0
3.6,564.0
3.61,568.0
3.62,561.0
3.63,567.0
3.64,564.0
3.65,566.0
3.66,567.0
3.67,572.0
3.68,579.0
3.69,589.0
3.7,590.0
3.71,594.0
3.72,581.0
3.73,581.0
3.74,569.0
3.75,573.0
3.7600000000000002,567.0
3.77,567.0
3.7800000000000002,562.0
3.79,567.0
3.8000000000000003,561.0
3.81,565.0
3.8200000000000003,556.0
3.83,559.0
3.84,680.0
3.85,712.0
3.86,568.0
3.87,518.0
3.88,550.0
3.89,562.0
3.9,571.0
3.91,569.0
3.92,573.0
3.93,578.0
3.94,576.0
3.95,578.0
3.96,585.0
3.97,586.0
3.98,589.0
3.99,589.0
4.0,591.0
4.01,593.0
4.0200000000000005,596.0
4.03,602.0
4.04,601.0
4.05,601.0
4.0600000000000005,606.0
4.07,607.0
4.08,600.0
4.09,594.0
4.1,589.0
4.11,581.0
4.12,577.0
4.13,574.0
4.14,570.0
4.15,568.0
4.16,571.0
4.17,578.0
4.18,578.0
4.19,579.0
4.2,578.0
4.21,578.0
4.22,584.0
4.23,580.0
4.24,580.0
4.25,581.0
4.26,585.0
4.2700000000000005,578.0
4.28,576.0
4.29,580.0
4.3,580.0
4.3100000000000005,576.0
4.32,576.0
4.33,577.0
4.34,576.0
4.3500000000000005,585.0
4.36,593.0
4.37,594.0
4.38,604.0
4.39,598.0
4.4,585.0
4.41,579.0
4.42,579.0
4.43,574.0
4.44,572.0
4.45,569.0
4.46,566.0
4.47,568.0
4.48,569.0
4.49,560.0
4.5,562.0
4.51,581.0
4.5200000000000005,741.0
4.53,672.0
4.54,522.0
4.55,522.0
4.5600000000000005,558.0
4.57,555.0
4.58,565.0
4.59,562.0
4.6000000000000005,571.0
4.61,567.0
4.62,569.0
4.63,571.0
4.64,573.0
4.65,576.0
4.66,574.0
4.67,580.0
4.68,585.0
4.69,581.0
4.7,591.0
4.71,591.0
4.72,593.0
4.73,593.0
4.74,595.0
4.75,595.0
4.76,589.0
4.7700000000000005,576.0
4.78,576.0
4.79,566.0
4.8,559.0
4.8100000000000005,556.0
4.82,559.0
4.83,552.0
4.84,554.0
4.8500000000000005,548.0
4.86,556.0
4.87,552.0
4.88,558.0
4.89,553.0
4.9,555.0
4.91,552.0
4.92,556.0
4.93,553.0
4.94,556.0
4.95,553.0
4.96,556.0
4.97,555.0
4.98,570.0
4.99,562.0
5.0,572.0
5.01,566.0
5.0200000000000005,577.0
5.03,577.0
5.04,590.0
5.05,590.0
5.0600000000000005,589.0
5.07,576.0
5.08,571.0
5.09,566.0
5.1000000000000005,569.0
5.11,558.0
5.12,561.0
5.13,559.0
5.14,560.0
5.15,558.0
5.16,562.0
5.17,552.0
5.18,590.0
5.19,738.0
5.2,646.0
5.21,510.0
5.22,520.0
5.23,550.0
5.24,554.0
5.25,559.0
5.26,562.0
5.2700000000000005,561.0
5.28,570.0
5.29,572.0
5.3,570.0
5.3100000000000005,570.0
5.32,577.0
5.33,576.0
5.34,580.0
5.3500000000000005,584.0
5.36,594.0
5.37,589.0
5.38,596.0
5.39,596.0
5.4,602.0
5.41,602.0
5.42,598.0
5.43,594.0
5.44,593.0
5.45,576.0
5.46,577.0
5.47,569.0
5.48,572.0
5.49,568.0
5.5,568.0
5.51,567.0
5.5200000000000005,574.0
5.53,569.0
5.54,569.0
5.55,573.0
5.5600000000000005,576.0
5.57,570.0
5.58,579.0
5.59,581.0
5.6000000000000005,577.0
5.61,581.0
5.62,581.0
5.63,577.0
5.64,580.0
5.65,579.0
5.66,589.0
5.67,582.0
5.68,590.0
5.69,605.0
5.7,609.0
5.71,615.0
5.72,605.0
5.73,598.0
5.74,595.0
5.75,594.0
5.76,597.0
5.7700000000000005,585.0
5.78,586.0
5.79,591.0
5.8,591.0
5.8100000000000005,588.0
5.82,581.0
5.83,578.0
5.84,600.0
5.8500000000000005,745.0
5.86,688.0
5.87,549.0
5.88,547.0
5.89,583.0
5.9,585.0
5.91,590.0
5.92,595.0
5.93,594.0
5.94,591.0
5.95,604.0
5.96,601.0
5.97,598.0
5.98,608.0
5.99,609.0
6.0,609.0
6.01,608.0
6.0200000000000005,627.0
6.03,618.0
6.04,619.0
6.05,628.0
6.0600000000000005,627.0
6.07,619.0
6.08,621.0
6.09,617.0
6.1000000000000005,614.0
6.11,613.0
6.12,600.0
6.13,603.0
6.140000000000001,592.0
6.15,595.0
6.16,590.0
6.17,596.0
6.18,590.0
6.19,593.0
6.2,591.0
6.21,595.0
6.22,590.0
6.23,595.0
6.24,589.0
6.25,597.0
6.26,589.0
6.2700000000000005,589.0
6.28,591.0
6.29,590.0
6.3,591.0
6.3100000000000005,595.0
6.32,608.0
6.33,614.0
6.34,612.0
6.3500000000000005,608.0
6.36,597.0
6.37,588.0
6.38,586.0
6.390000000000001,589.0
6.4,578.0
6.41,584.0
6.42,577.0
6.43,580.0
6.44,579.0
6.45,572.0
6.46,566.0
6.47,593.0
6.48,733.0
6.49,663.0
6.5,522.0
6.51,541.0
6.5200000000000005,557.0
6.53,564.0
6.54,576.0
6.55,571.0
6.5600000000000005,568.0
6.57,576.0
6.58,573.0
6.59,579.0
6.6000000000000005,581.0
6.61,584.0
6.62,580.0
6.63,583.0
6.640000000000001,585.0
6.65,591.0
6.66,589.0
6.67,595.0
6.68,593.0
6.69,600.0
6.7,589.0
6.71,593.0
6.72,580.0
6.73,581.0
6.74,574.0
6.75,567.0
6.76,556.0
6.7700000000000005,561.0
6.78,555.0
6.79,553.0
6.8,553.0
6.8100000000000005,556.0
6.82,546.0
6.83,555.0
6.84,555.0
6.8500000000000005,556.0
6.86,553.0
6.87,550.0
6.88,552.0
6.890000000000001,550.0
6.9,545.0
6.91,549.0
6.92,552.0
6.93,556.0
6.94,560.0
6.95,574.0
6.96,572.0
6.97,554.0
6.98,547.0
6.99,546.0
7.0,542.0
7.01,542.0
7.0200000000000005,536.0
7.03,536.0
7.04,535.0
7.05,533.0
7.0600000000000005,526.0
7.07,528.0
7.08,525.0
7.09,586.0
7.1000000000000005,694.0
7.11,582.0
7.12,473.0
7.13,505.0
7.140000000000001,521.0
7.15,528.0
7.16,531.0
7.17,531.0
7.18,533.0
7.19,535.0
7.2,540.0
7.21,537.0
7.22,543.0
7.23,543.0
7.24,548.0
7.25,549.0
7.26,550.0
7.2700000000000005,555.0
7.28,556.0
7.29,561.0
7.3,559.0
7.3100000000000005,557.0
7.32,565.0
7.33,558.0
7.34,550.0
7.3500000000000005,537.0
7.36,518.0
7.37,512.0
7.38,506.0
7.390000000000001,508.0
7.4,508.0
7.41,512.0
7.42,505.0
7.43,508.0
7.44,509.0
7.45,509.0
7.46,509.0
7.47,516.0
7.48,514.0
7.49,511.0
7.5,517.0
7.51,514.0
7.5200000000000005,514.0
7.53,513.0
7.54,518.0
7.55,512.0
7.5600000000000005,518.0
7.57,530.0
7.58,533.0
7.59,541.0
7.6000000000000005,549.0
7.61,532.0
7.62,531.0
7.63,522.0
7.640000000000001,522.0
7.65,517.0
7.66,513.0
7.67,508.0
7.68,513.0
7.69,508.0
7.7,509.0
7.71,505.0
7.72,504.0
7.73,550.0
7.74,690.0
7.75,577.0
7.76,457.0
7.7700000000000005,483.0
7.78,507.0
7.79,506.0
7.8,516.0
7.8100000000000005,516.0
7.82,521.0
7.83,523.0
7.84,525.0
7.8500000000000005,525.0
7.86,533.0
7.87,532.0
7.88,541.0
7.890000000000001,537.0
7.9,547.0
7.91,550.0
7.92,562.0
7.930000000000001,565.0
7.94,579.0
7.95,578.0
7.96,588.0
7.97,588.0
7.98,581.0
7.99,577.0
8.0,577.0
8.01,568.0
8.02,570.0
8.03,566.0
8.040000000000001,566.0
8.05,565.0
8.06,573.0
8.07,565.0
8.08,572.0
8.09,570.0
8.1,574.0
8.11,572.0
8.120000000000001,579.0
8.13,576.0
8.14,579.0
8.15,578.0
8.16,578.0
8.17,572.0
8.18,581.0
8.19,574.0
8.2,576.0
8.21,576.0
8.22,580.0
8.23,586.0
8.24,591.0
8.25,600.0
8.26,608.0
8.27,593.0
8.28,590.0
8.290000000000001,581.0
8.3,582.0
8.31,578.0
8.32,579.0
8.33,572.0
8.34,576.0
8.35,574.0
8.36,571.0
8.370000000000001,574.0
8.38,571.0
8.39,574.0
8.4,733.0
8.41,711.0
8.42,556.0
8.43,523.0
8.44,571.0
8.45,566.0
8.46,583.0
8.47,591.0
8.48,594.0
8.49,597.0
8.5,594.0
8.51,593.0
8.52,600.0
8.53,600.0
8.540000000000001,615.0
8.55,619.0
8.56,622.0
8.57,622.0
8.58,631.0
8.59,626.0
8.6,634.0
8.61,628.0
8.620000000000001,626.0
8.63,627.0
8.64,620.0
8.65,609.0
8.66,607.0
8.67,604.0
8.68,594.0
8.69,589.0
8.700000000000001,590.0
8.71,585.0
8.72,585.0
8.73,582.0
8.74,581.0
8.75,583.0
8.76,589.0
8.77,589.0
8.78,585.0
8.790000000000001,580.0
8.8,585.0
8.81,586.0
8.82,579.0
8.83,588.0
8.84,579.0
8.85,585.0
8.86,586.0
8.870000000000001,578.0
8.88,581.0
8.89,586.0
8.9,583.0
8.91,588.0
8.92,593.0
8.93,605.0
8.94,609.0
8.950000000000001,609.0
8.96,596.0
8.97,595.0
8.98,580.0
8.99,584.0
9.0,577.0
9.01,583.0
9.02,576.0
9.03,569.0
9.040000000000001,573.0
9.05,572.0
9.06,570.0
9.07,561.0
9.08,662.0
9.09,715.0
9.1,581.0
9.11,512.0
9.120000000000001,541.0
9.13,544.0
9.14,544.0
9.15,548.0
9.16,552.0
9.17,556.0
9.18,552.0
9.19,557.0
9.200000000000001,558.0
9.21,559.0
9.22,561.0
9.23,567.0
9.24,560.0
9.25,572.0
9.26,574.0
9.27,576.0
9.28,576.0
9.290000000000001,579.0
9.3,572.0
9.31,585.0
9.32,576.0
9.33,572.0
9.34,567.0
9.35,566.0
9.36,550.0
9.370000000000001,559.0
9.38,547.0
9.39,552.0
9.4,552.0
9.41,555.0
9.42,552.0
9.43,552.0
9.44,549.0
9.450000000000001,559.0
9.46,555.0
9.47,556.0
9.48,555.0
9.49,560.0
9.5,545.0
9.51,552.0
9.52,552.0
9.53,552.0
9.540000000000001,543.0
9.55,554.0
9.56,547.0
9.57,556.0
9.58,565.0
9.59,572.0
9.6,569.0
9.61,570.0
9.620000000000001,558.0
9.63,553.0
9.64,548.0
9.65,553.0
9.66,541.0
9.67,546.0
9.68,541.0
9.69,545.0
9.700000000000001,537.0
9.71,541.0
9.72,535.0
9.73,531.0
9.74,633.0
9.75,680.0
9.76,544.0
9.77,489.0
9.78,518.0
9.790000000000001,532.0
9.8,537.0
9.81,543.0
9.82,542.0
9.83,544.0
9.84,542.0
9.85,550.0
9.86,550.0
9.870000000000001,553.0
9.88,549.0
9.89,559.0
9.9,554.0
9.91,555.0
9.92,557.0
9.93,562.0
9.94,559.0
9.950000000000001,562.0
9.96,566.0
9.97,562.0
9.98,558.0
9.99,545.0
