Time,ADC
0.0,559.0
0.01,534.0
0.02,526.0
0.03,525.0
0.04,514.0
0.05,514.0
0.06,513.0
0.07,516.0
0.08,506.0
0.09,474.0
0.1,568.0
0.11,809.0
0.12,1005.0
0.13,607.0
0.14,386.0
0.15,481.0
0.16,492.0
0.17,524.0
0.18,516.0
0.19,520.0
0.2,526.0
0.21,530.0
0.22,530.0
0.23,537.0
0.24,542.0
0.25,546.0
0.26,552.0
0.27,555.0
0.28,561.0
0.29,571.0
0.3,579.0
0.31,586.0
0.32,601.0
0.33,613.0
0.34,632.0
0.35000000000000003,644.0
0.36,652.0
0.37,651.0
0.38,648.0
0.39,629.0
0.4,604.0
0.41000000000000003,574.0
0.42,546.0
0.43,530.0
0.44,518.0
0.45,507.0
0.46,505.0
0.47000000000000003,505.0
0.48,504.0
0.49,504.0
0.5,508.0
0.51,508.0
0.52,518.0
0.53,516.0
0.54,516.0
0.55,518.0
0.56,518.0
0.5700000000000001,519.0
0.58,519.0
0.59,521.0
0.6,522.0
0.61,516.0
0.62,516.0
0.63,518.0
0.64,520.0
0.65,517.0
0.66,519.0
0.67,518.0
0.68,522.0
0.6900000000000001,520.0
0.7000000000000001,522.0
0.71,522.0
0.72,519.0
0.73,520.0
0.74,521.0
0.75,520.0
0.76,521.0
0.77,521.0
0.78,524.0
0.79,524.0
0.8,526.0
0.81,525.0
0.8200000000000001,525.0
0.8300000000000001,528.0
0.84,528.0
0.85,522.0
0.86,528.0
0.87,528.0
0.88,534.0
0.89,541.0
0.9,560.0
0.91,566.0
0.92,576.0
0.93,553.0
0.9400000000000001,531.0
0.9500000000000001,531.0
0.96,525.0
0.97,513.0
0.98,518.0
0.99,521.0
1.0,520.0
1.01,486.0
1.02,523.0
1.03,720.0
1.04,990.0
1.05,853.0
1.06,414.0
1.07,489.0
1.08,492.0
1.09,530.0
1.1,518.0
1.11,521.0
1.12,528.0
1.1300000000000001,531.0
1.1400000000000001,533.0
1.1500000000000001,540.0
1.16,543.0
1.17,544.0
1.18,550.0
1.19,557.0
1.2,561.0
1.21,571.0
1.22,579.0
1.23,589.0
1.24,604.0
1.25,616.0
1.26,631.0
1.27,645.0
1.28,652.0
1.29,661.0
1.3,662.0
1.31,648.0
1.32,626.0
1.33,595.0
1.34,567.0
1.35,543.0
1.36,524.0
1.37,513.0
1.3800000000000001,508.0
1.3900000000000001,502.0
1.4000000000000001,507.0
1.41,506.0
1.42,502.0
1.43,512.0
1.44,512.0
1.45,513.0
1.46,514.0
1.47,516.0
1.48,518.0
1.49,522.0
1.5,522.0
1.51,522.0
1.52,521.0
1.53,521.0
1.54,522.0
1.55,521.0
1.56,517.0
1.57,517.0
1.58,516.0
1.59,516.0
1.6,514.0
1.61,514.0
1.62,516.0
1.6300000000000001,516.0
1.6400000000000001,513.0
1.6500000000000001,516.0
1.6600000000000001,516.0
1.67,518.0
1.68,518.0
1.69,519.0
1.7,522.0
1.71,522.0
1.72,519.0
1.73,521.0
1.74,521.0
1.75,522.0
1.76,523.0
1.77,522.0
1.78,522.0
1.79,525.0
1.8,528.0
1.81,525.0
1.82,531.0
1.83,531.0
1.84,528.0
1.85,532.0
1.86,532.0
1.87,553.0
1.8800000000000001,559.0
1.8900000000000001,572.0
1.9000000000000001,562.0
1.9100000000000001,540.0
1.92,531.0
1.93,526.0
1.94,513.0
1.95,516.0
1.96,517.0
1.97,518.0
1.98,499.0
1.99,481.0
2.0,615.0
2.0100000000000002,892.0
2.02,1022.0
2.0300000000000002,505.0
2.04,473.0
2.05,492.0
2.06,520.0
2.07,521.0
2.08,512.0
2.09,524.0
2.1,525.0
2.11,528.0
2.12,534.0
2.13,536.0
2.14,542.0
2.15,544.0
2.16,548.0
2.17,555.0
2.18,566.0
2.19,572.0
2.2,581.0
2.21,594.0
2.22,605.0
2.23,624.0
2.24,640.0
2.25,644.0
2.2600000000000002,653.0
2.27,657.0
2.2800000000000002,648.0
2.29,633.0
2.3000000000000003,606.0
2.31,577.0
2.32,554.0
2.33,529.0
2.34,516.0
2.35,509.0
2.36,506.0
2.37,506.0
2.38,505.0
2.39,505.0
2.4,502.0
2.41,507.0
2.42,510.0
2.43,507.0
2.44,512.0
2.45,511.0
2.46,512.0
2.47,512.0
2.48,513.0
2.49,508.0
2.5,511.0
2.5100000000000002,512.0
2.52,504.0
2.5300000000000002,508.0
2.54,507.0
2.5500000000000003,502.0
2.56,506.0
2.57,502.0
2.58,505.0
2.59,507.0
2.6,505.0
2.61,507.0
2.62,506.0
2.63,507.0
2.64,508.0
2.65,512.0
2.66,508.0
2.67,509.0
2.68,508.0
2.69,512.0
2.7,508.0
2.71,514.0
2.72,513.0
2.73,509.0
2.74,514.0
2.75,514.0
2.7600000000000002,517.0
2.77,516.0
2.7800000000000002,521.0
2.79,541.0
2.8000000000000003,546.0
2.81,561.0
2.82,552.0
2.83,526.0
2.84,523.0
2.85,518.0
2.86,508.0
2.87,509.0
2.88,512.0
2.89,506.0
2.9,471.0
2.91,429.0
2.92,664.0
2.93,897.0
2.94,960.0
2.95,442.0
2.96,440.0
2.97,473.0
2.98,499.0
2.99,520.0
3.0,507.0
3.0100000000000002,517.0
3.02,519.0
3.0300000000000002,518.0
3.04,525.0
3.0500000000000003,528.0
3.06,534.0
3.0700000000000003,533.0
3.08,535.0
3.09,545.0
3.1,554.0
3.11,559.0
3.12,568.0
3.13,580.0
3.14,595.0
3.15,604.0
3.16,619.0
3.17,628.0
3.18,628.0
3.19,632.0
3.2,631.0
3.21,613.0
3.22,585.0
3.23,559.0
3.24,534.0
3.25,519.0
3.2600000000000002,504.0
3.27,499.0
3.2800000000000002,496.0
3.29,495.0
3.3000000000000003,496.0
3.31,494.0
3.3200000000000003,499.0
3.33,497.0
3.34,505.0
3.35,502.0
3.36,501.0
3.37,506.0
3.38,509.0
3.39,509.0
3.4,509.0
3.41,508.0
3.42,508.0
3.43,508.0
3.44,506.0
3.45,509.0
3.46,508.0
3.47,509.0
3.48,507.0
3.49,506.0
3.5,508.0
3.5100000000000002,509.0
3.52,507.0
3.5300000000000002,513.0
3.54,512.0
3.5500000000000003,508.0
3.56,514.0
3.5700000000000003,514.0
3.58,516.0
3.59,518.0
3.6,520.0
3.61,537.0
3.62,546.0
3.63,558.0
3.64,558.0
3.65,534.0
3.66,524.0
3.67,522.0
3.68,514.0
3.69,508.0
3.7,510.0
3.71,511.0
3.72,504.0
3.73,474.0
3.74,549.0
3.75,775.0
3.7600000000000002,996.0
3.77,674.0
3.7800000000000002,374.0
3.79,478.0
3.8000000000000003,481.0
3.81,522.0
3.8200000000000003,512.0
3.83,517.0
3.84,528.0
3.85,525.0
3.86,531.0
3.87,535.0
3.88,540.0
3.89,545.0
3.9,547.0
3.91,554.0
3.92,560.0
3.93,572.0
3.94,577.0
3.95,591.0
3.96,602.0
3.97,619.0
3.98,634.0
3.99,644.0
4.0,654.0
4.01,655.0
4.0200000000000005,653.0
4.03,634.0
4.04,608.0
4.05,579.0
4.0600000000000005,545.0
4.07,528.0
4.08,520.0
4.09,509.0
4.1,509.0
4.11,505.0
4.12,506.0
4.13,504.0
4.14,508.0
4.15,512.0
4.16,513.0
4.17,514.0
4.18,514.0
4.19,518.0
4.2,518.0
4.21,521.0
4.22,522.0
4.23,524.0
4.24,522.0
4.25,521.0
4.26,518.0
4.2700000000000005,519.0
4.28,521.0
4.29,521.0
4.3,518.0
4.3100000000000005,520.0
4.32,519.0
4.33,522.0
4.34,521.0
4.3500000000000005,521.0
4.36,521.0
4.37,521.0
4.38,522.0
4.39,525.0
4.4,524.0
4.41,526.0
4.42,525.0
4.43,523.0
4.44,524.0
4.45,528.0
4.46,532.0
4.47,554.0
4.48,558.0
4.49,576.0
4.5,559.0
4.51,535.0
4.5200000000000005,534.0
4.53,530.0
4.54,522.0
4.55,521.0
4.5600000000000005,524.0
4.57,525.0
4.58,506.0
4.59,489.0
4.6000000000000005,633.0
4.61,896.0
4.62,1016.0
4.63,497.0
4.64,469.0
4.65,494.0
4.66,522.0
4.67,531.0
4.68,520.0
4.69,531.0
4.7,533.0
4.71,533.0
4.72,534.0
4.73,540.0
4.74,544.0
4.75,553.0
4.76,560.0
4.7700000000000005,565.0
4.78,573.0
4.79,585.0
4.8,593.0
4.8100000000000005,604.0
4.82,619.0
4.83,634.0
4.84,646.0
4.8500000000000005,655.0
4.86,656.0
4.87,673.0
4.88,670.0
4.89,640.0
4.9,613.0
4.91,579.0
4.92,555.0
4.93,532.0
4.94,520.0
4.95,514.0
4.96,511.0
4.97,478.0
4.98,511.0
4.99,546.0
5.0,535.0
5.01,516.0
5.0200000000000005,502.0
5.03,516.0
5.04,521.0
5.05,519.0
5.0600000000000005,520.0
5.07,521.0
5.08,521.0
5.09,525.0
5.1000000000000005,523.0
5.11,520.0
5.12,519.0
5.13,516.0
5.14,522.0
5.15,516.0
5.16,516.0
5.17,513.0
5.18,517.0
5.19,518.0
5.2,516.0
5.21,521.0
5.22,525.0
5.23,522.0
5.24,516.0
5.25,522.0
5.26,519.0
5.2700000000000005,521.0
5.28,522.0
5.29,518.0
5.3,522.0
5.3100000000000005,522.0
5.32,526.0
5.33,526.0
5.34,531.0
5.3500000000000005,552.0
5.36,559.0
5.37,571.0
5.38,550.0
5.39,532.0
5.4,531.0
5.41,523.0
5.42,513.0
5.43,513.0
5.44,514.0
5.45,514.0
5.46,493.0
5.47,493.0
5.48,658.0
5.49,939.0
5.5,909.0
5.51,404.0
5.5200000000000005,469.0
5.53,477.0
5.54,512.0
5.55,513.0
5.5600000000000005,512.0
5.57,520.0
5.58,521.0
5.59,525.0
5.6000000000000005,530.0
5.61,535.0
5.62,535.0
5.63,543.0
5.64,548.0
5.65,554.0
5.66,560.0
5.67,568.0
5.68,581.0
5.69,591.0
5.7,603.0
5.71,617.0
5.72,633.0
5.73,643.0
5.74,643.0
5.75,644.0
5.76,632.0
5.7700000000000005,613.0
5.78,581.0
5.79,556.0
5.8,533.0
5.8100000000000005,513.0
5.82,506.0
5.83,498.0
5.84,494.0
5.8500000000000005,499.0
5.86,493.0
5.87,494.0
5.88,498.0
5.89,497.0
5.9,501.0
5.91,504.0
5.92,504.0
5.93,505.0
5.94,506.0
5.95,509.0
5.96,507.0
5.97,507.0
5.98,506.0
5.99,508.0
6.0,508.0
6.01,507.0
6.0200000000000005,506.0
6.03,506.0
6.04,506.0
6.05,505.0
6.0600000000000005,508.0
6.07,508.0
6.08,505.0
6.09,505.0
6.1000000000000005,506.0
6.11,505.0
6.12,506.0
6.13,502.0
6.140000000000001,511.0
6.15,513.0
6.16,540.0
6.17,541.0
6.18,566.0
6.19,540.0
6.2,521.0
6.21,512.0
6.22,504.0
6.23,498.0
6.24,499.0
6.25,502.0
6.26,511.0
6.2700000000000005,493.0
6.28,474.0
6.29,609.0
6.3,872.0
6.3100000000000005,967.0
6.32,441.0
6.33,427.0
6.34,475.0
6.3500000000000005,501.0
6.36,521.0
6.37,511.0
6.38,518.0
6.390000000000001,521.0
6.4,522.0
6.41,525.0
6.42,534.0
6.43,541.0
6.44,542.0
6.45,546.0
6.46,554.0
6.47,562.0
6.48,569.0
6.49,582.0
6.5,595.0
6.51,605.0
6.5200000000000005,624.0
6.53,636.0
6.54,643.0
6.55,650.0
6.5600000000000005,651.0
6.57,636.0
6.58,608.0
6.59,580.0
6.6000000000000005,552.0
6.61,528.0
6.62,513.0
6.63,501.0
6.640000000000001,499.0
6.65,495.0
6.66,494.0
6.67,497.0
6.68,496.0
6.69,502.0
6.7,502.0
6.71,505.0
6.72,505.0
6.73,508.0
6.74,513.0
6.75,511.0
6.76,511.0
6.7700000000000005,511.0
6.78,512.0
6.79,512.0
6.8,513.0
6.8100000000000005,508.0
6.82,509.0
6.83,508.0
6.84,508.0
6.8500000000000005,510.0
6.86,509.0
6.87,511.0
6.88,512.0
6.890000000000001,507.0
6.9,512.0
6.91,513.0
6.92,513.0
6.93,513.0
6.94,514.0
6.95,518.0
6.96,521.0
6.97,516.0
6.98,521.0
6.99,520.0
7.0,522.0
7.01,517.0
7.0200000000000005,522.0
7.03,520.0
7.04,521.0
7.05,522.0
7.0600000000000005,526.0
7.07,524.0
7.08,523.0
7.09,526.0
7.1000000000000005,537.0
7.11,559.0
7.12,560.0
7.13,584.0
7.140000000000001,555.0
7.15,537.0
7.16,532.0
7.17,525.0
7.18,516.0
7.19,518.0
7.2,522.0
7.21,522.0
7.22,488.0
7.23,521.0
7.24,718.0
7.25,990.0
7.26,871.0
7.2700000000000005,424.0
7.28,495.0
7.29,494.0
7.3,534.0
7.3100000000000005,525.0
7.32,524.0
7.33,531.0
7.34,533.0
7.3500000000000005,538.0
7.36,544.0
7.37,549.0
7.38,552.0
7.390000000000001,555.0
7.4,559.0
7.41,567.0
7.42,573.0
7.43,585.0
7.44,595.0
7.45,608.0
7.46,621.0
7.47,634.0
7.48,651.0
7.49,660.0
7.5,664.0
7.51,666.0
7.5200000000000005,653.0
7.53,632.0
7.54,602.0
7.55,572.0
7.5600000000000005,546.0
7.57,532.0
7.58,520.0
7.59,513.0
7.6000000000000005,507.0
7.61,508.0
7.62,509.0
7.63,506.0
7.640000000000001,511.0
7.65,518.0
7.66,517.0
7.67,522.0
7.68,520.0
7.69,524.0
7.7,526.0
7.71,525.0
7.72,524.0
7.73,522.0
7.74,522.0
7.75,524.0
7.76,522.0
7.7700000000000005,524.0
7.78,521.0
7.79,521.0
7.8,523.0
7.8100000000000005,521.0
7.82,521.0
7.83,522.0
7.84,522.0
7.8500000000000005,522.0
7.86,522.0
7.87,519.0
7.88,519.0
7.890000000000001,522.0
7.9,526.0
7.91,521.0
7.92,522.0
7.930000000000001,524.0
7.94,522.0
7.95,524.0
7.96,521.0
7.97,525.0
7.98,521.0
7.99,524.0
8.0,526.0
8.01,526.0
8.02,523.0
8.03,524.0
8.040000000000001,526.0
8.05,524.0
8.06,523.0
8.07,525.0
8.08,530.0
8.09,525.0
8.1,526.0
8.11,540.0
8.120000000000001,557.0
8.13,562.0
8.14,577.0
8.15,553.0
8.16,530.0
8.17,532.0
8.18,522.0
8.19,516.0
8.2,514.0
8.21,514.0
8.22,516.0
8.23,481.0
8.24,530.0
8.25,742.0
8.26,992.0
8.27,793.0
8.28,394.0
8.290000000000001,492.0
8.3,487.0
8.31,528.0
8.32,512.0
8.33,520.0
8.34,526.0
8.35,528.0
8.36,531.0
8.370000000000001,537.0
8.38,541.0
8.39,543.0
8.4,548.0
8.41,555.0
8.42,566.0
8.43,569.0
8.44,578.0
8.45,588.0
8.46,598.0
8.47,615.0
8.48,625.0
8.49,636.0
8.5,648.0
8.51,652.0
8.52,646.0
8.53,634.0
8.540000000000001,615.0
8.55,590.0
8.56,556.0
8.57,537.0
8.58,520.0
8.59,511.0
8.6,507.0
8.61,502.0
8.620000000000001,498.0
8.63,494.0
8.64,497.0
8.65,502.0
8.66,505.0
8.67,507.0
8.68,509.0
8.69,512.0
8.700000000000001,516.0
8.71,518.0
8.72,513.0
8.73,516.0
8.74,519.0
8.75,518.0
8.76,516.0
8.77,512.0
8.78,516.0
8.790000000000001,517.0
8.8,514.0
8.81,516.0
8.82,513.0
8.83,513.0
8.84,513.0
8.85,514.0
8.86,513.0
8.870000000000001,513.0
8.88,514.0
8.89,511.0
8.9,512.0
8.91,514.0
8.92,514.0
8.93,516.0
8.94,513.0
8.950000000000001,516.0
8.96,518.0
8.97,513.0
8.98,513.0
8.99,518.0
9.0,520.0
9.01,524.0
9.02,544.0
9.03,550.0
9.040000000000001,566.0
9.05,545.0
9.06,526.0
9.07,521.0
9.08,522.0
9.09,511.0
9.1,513.0
9.11,514.0
9.120000000000001,511.0
9.13,496.0
9.14,497.0
9.15,664.0
9.16,918.0
9.17,913.0
9.18,392.0
9.19,460.0
9.200000000000001,486.0
9.21,518.0
9.22,522.0
9.23,516.0
9.24,528.0
9.25,532.0
9.26,532.0
9.27,540.0
9.28,546.0
9.290000000000001,552.0
9.3,554.0
9.31,560.0
9.32,566.0
9.33,571.0
9.34,580.0
9.35,586.0
9.36,600.0
9.370000000000001,614.0
9.38,627.0
9.39,641.0
9.4,650.0
9.41,653.0
9.42,657.0
9.43,644.0
9.44,619.0
9.450000000000001,590.0
9.46,559.0
9.47,537.0
9.48,525.0
9.49,514.0
9.5,507.0
9.51,508.0
9.52,508.0
9.53,505.0
9.540000000000001,504.0
9.55,513.0
9.56,512.0
9.57,508.0
9.58,517.0
9.59,514.0
9.6,518.0
9.61,517.0
9.620000000000001,518.0
9.63,516.0
9.64,521.0
9.65,521.0
9.66,513.0
9.67,514.0
9.68,518.0
9.69,518.0
9.700000000000001,514.0
9.71,513.0
9.72,517.0
9.73,514.0
9.74,517.0
9.75,516.0
9.76,516.0
9.77,517.0
9.78,514.0
9.790000000000001,516.0
9.8,518.0
9.81,514.0
9.82,517.0
9.83,518.0
9.84,521.0
9.85,522.0
9.86,518.0
9.870000000000001,522.0
9.88,525.0
9.89,524.0
9.9,526.0
9.91,524.0
9.92,525.0
9.93,525.0
9.94,531.0
9.950000000000001,534.0
9.96,546.0
9.97,559.0
9.98,566.0
9.99,571.0
