Time,ADC
0.0,544.0
0.01,544.0
0.02,548.0
0.03,552.0
0.04,558.0
0.05,566.0
0.06,572.0
0.07,585.0
0.08,593.0
0.09,598.0
0.1,616.0
0.11,628.0
0.12,637.0
0.13,646.0
0.14,651.0
0.15,646.0
0.16,634.0
0.17,617.0
0.18,588.0
0.19,562.0
0.2,540.0
0.21,521.0
0.22,513.0
0.23,506.0
0.24,501.0
0.25,504.0
0.26,502.0
0.27,501.0
0.28,507.0
0.29,507.0
0.3,508.0
0.31,508.0
0.32,514.0
0.33,513.0
0.34,513.0
0.35000000000000003,514.0
0.36,514.0
0.37,513.0
0.38,513.0
0.39,512.0
0.4,508.0
0.41000000000000003,510.0
0.42,512.0
0.43,508.0
0.44,509.0
0.45,508.0
0.46,511.0
0.47000000000000003,512.0
0.48,511.0
0.49,513.0
0.5,513.0
0.51,516.0
0.52,516.0
0.53,519.0
0.54,517.0
0.55,521.0
0.56,518.0
0.5700000000000001,521.0
0.58,518.0
0.59,519.0
0.6,521.0
0.61,526.0
0.62,546.0
0.63,555.0
0.64,572.0
0.65,558.0
0.66,536.0
0.67,531.0
0.68,530.0
0.6900000000000001,518.0
0.7000000000000001,519.0
0.71,521.0
0.72,521.0
0.73,508.0
0.74,487.0
0.75,602.0
0.76,859.0
0.77,1012.0
0.78,524.0
0.79,428.0
0.8,493.0
0.81,512.0
0.8200000000000001,540.0
0.8300000000000001,526.0
0.84,533.0
0.85,538.0
0.86,543.0
0.87,545.0
0.88,550.0
0.89,558.0
0.9,558.0
0.91,562.0
0.92,567.0
0.93,578.0
0.9400000000000001,586.0
0.9500000000000001,596.0
0.96,604.0
0.97,616.0
0.98,632.0
0.99,648.0
1.0,656.0
1.01,668.0
1.02,666.0
1.03,661.0
1.04,641.0
1.05,613.0
1.06,586.0
1.07,559.0
1.08,541.0
1.09,526.0
1.1,516.0
1.11,516.0
1.12,514.0
1.1300000000000001,513.0
1.1400000000000001,512.0
1.1500000000000001,514.0
1.16,521.0
1.17,521.0
1.18,520.0
1.19,524.0
1.2,528.0
1.21,529.0
1.22,530.0
1.23,530.0
1.24,532.0
1.25,530.0
1.26,531.0
1.27,529.0
1.28,526.0
1.29,532.0
1.3,530.0
1.31,530.0
1.32,530.0
1.33,531.0
1.34,530.0
1.35,528.0
1.36,533.0
1.37,532.0
1.3800000000000001,532.0
1.3900000000000001,532.0
1.4000000000000001,532.0
1.41,530.0
1.42,531.0
1.43,533.0
1.44,530.0
1.45,534.0
1.46,536.0
1.47,534.0
1.48,536.0
1.49,537.0
1.5,535.0
1.51,536.0
1.52,537.0
1.53,534.0
1.54,542.0
1.55,548.0
1.56,567.0
1.57,576.0
1.58,589.0
1.59,562.0
1.6,545.0
1.61,546.0
1.62,538.0
1.6300000000000001,531.0
1.6400000000000001,534.0
1.6500000000000001,533.0
1.6600000000000001,530.0
1.67,498.0
1.68,533.0
1.69,738.0
1.7,1012.0
1.71,866.0
1.72,432.0
1.73,505.0
1.74,504.0
1.75,537.0
1.76,530.0
1.77,531.0
1.78,537.0
1.79,540.0
1.8,545.0
1.81,550.0
1.82,554.0
1.83,556.0
1.84,560.0
1.85,567.0
1.86,572.0
1.87,579.0
1.8800000000000001,589.0
1.8900000000000001,600.0
1.9000000000000001,612.0
1.9100000000000001,629.0
1.92,643.0
1.93,654.0
1.94,665.0
1.95,674.0
1.96,673.0
1.97,660.0
1.98,638.0
1.99,609.0
2.0,577.0
2.0100000000000002,555.0
2.02,537.0
2.0300000000000002,525.0
2.04,517.0
2.05,516.0
2.06,513.0
2.07,512.0
2.08,511.0
2.09,512.0
2.1,518.0
2.11,520.0
2.12,518.0
2.13,521.0
2.14,524.0
2.15,524.0
2.16,524.0
2.17,524.0
2.18,526.0
2.19,525.0
2.2,523.0
2.21,521.0
2.22,521.0
2.23,522.0
2.24,524.0
2.25,518.0
2.2600000000000002,521.0
2.27,524.0
2.2800000000000002,521.0
2.29,522.0
2.3000000000000003,524.0
2.31,524.0
2.32,522.0
2.33,522.0
2.34,525.0
2.35,526.0
2.36,524.0
2.37,524.0
2.38,526.0
2.39,526.0
2.4,525.0
2.41,525.0
2.42,525.0
2.43,528.0
2.44,531.0
2.45,526.0
2.46,526.0
2.47,532.0
2.48,530.0
2.49,533.0
2.5,532.0
2.5100000000000002,533.0
2.52,535.0
2.5300000000000002,537.0
2.54,558.0
2.5500000000000003,567.0
2.56,578.0
2.57,567.0
2.58,542.0
2.59,540.0
2.6,534.0
2.61,526.0
2.62,525.0
2.63,526.0
2.64,528.0
2.65,506.0
2.66,497.0
2.67,645.0
2.68,918.0
2.69,998.0
2.7,463.0
2.71,474.0
2.72,496.0
2.73,521.0
2.74,526.0
2.75,521.0
2.7600000000000002,533.0
2.77,534.0
2.7800000000000002,537.0
2.79,541.0
2.8000000000000003,546.0
2.81,549.0
2.82,554.0
2.83,559.0
2.84,562.0
2.85,572.0
2.86,577.0
2.87,588.0
2.88,596.0
2.89,609.0
2.9,626.0
2.91,636.0
2.92,645.0
2.93,654.0
2.94,653.0
2.95,653.0
2.96,634.0
2.97,612.0
2.98,581.0
2.99,556.0
3.0,533.0
3.0100000000000002,520.0
3.02,509.0
3.0300000000000002,507.0
3.04,506.0
3.0500000000000003,504.0
3.06,499.0
3.0700000000000003,506.0
3.08,511.0
3.09,508.0
3.1,512.0
3.11,507.0
3.12,511.0
3.13,516.0
3.14,516.0
3.15,513.0
3.16,518.0
3.17,511.0
3.18,512.0
3.19,514.0
3.2,513.0
3.21,511.0
3.22,508.0
3.23,509.0
3.24,512.0
3.25,511.0
3.2600000000000002,509.0
3.27,507.0
3.2800000000000002,509.0
3.29,509.0
3.3000000000000003,508.0
3.31,508.0
3.3200000000000003,511.0
3.33,512.0
3.34,513.0
3.35,513.0
3.36,513.0
3.37,512.0
3.38,516.0
3.39,512.0
3.4,514.0
3.41,519.0
3.42,521.0
3.43,541.0
3.44,552.0
3.45,567.0
3.46,546.0
3.47,524.0
3.48,522.0
3.49,517.0
3.5,509.0
3.5100000000000002,513.0
3.52,513.0
3.5300000000000002,513.0
3.54,494.0
3.5500000000000003,495.0
3.56,654.0
3.5700000000000003,921.0
3.58,927.0
3.59,401.0
3.6,451.0
3.61,480.0
3.62,512.0
3.63,526.0
3.64,520.0
3.65,526.0
3.66,531.0
3.67,534.0
3.68,536.0
3.69,542.0
3.7,546.0
3.71,549.0
3.72,554.0
3.73,560.0
3.74,569.0
3.75,576.0
3.7600000000000002,585.0
3.77,597.0
3.7800000000000002,608.0
3.79,626.0
3.8000000000000003,639.0
3.81,646.0
3.8200000000000003,654.0
3.83,655.0
3.84,646.0
3.85,627.0
3.86,597.0
3.87,571.0
3.88,547.0
3.89,532.0
3.9,521.0
3.91,511.0
3.92,505.0
3.93,510.0
3.94,508.0
3.95,509.0
3.96,512.0
3.97,516.0
3.98,513.0
3.99,516.0
4.0,518.0
4.01,520.0
4.0200000000000005,521.0
4.03,521.0
4.04,522.0
4.05,524.0
4.0600000000000005,520.0
4.07,518.0
4.08,518.0
4.09,517.0
4.1,516.0
4.11,513.0
4.12,518.0
4.13,514.0
4.14,519.0
4.15,518.0
4.16,518.0
4.17,519.0
4.18,521.0
4.19,520.0
4.2,522.0
4.21,523.0
4.22,525.0
4.23,526.0
4.24,525.0
4.25,528.0
4.26,530.0
4.2700000000000005,532.0
4.28,531.0
4.29,532.0
4.3,533.0
4.3100000000000005,534.0
4.32,533.0
4.33,533.0
4.34,537.0
4.3500000000000005,541.0
4.36,566.0
4.37,566.0
4.38,579.0
4.39,562.0
4.4,545.0
4.41,542.0
4.42,535.0
4.43,525.0
4.44,526.0
4.45,530.0
4.46,532.0
4.47,508.0
4.48,505.0
4.49,663.0
4.5,933.0
4.51,991.0
4.5200000000000005,461.0
4.53,482.0
4.54,497.0
4.55,530.0
4.5600000000000005,532.0
4.57,530.0
4.58,536.0
4.59,537.0
4.6000000000000005,541.0
4.61,546.0
4.62,552.0
4.63,555.0
4.64,557.0
4.65,562.0
4.66,569.0
4.67,577.0
4.68,589.0
4.69,597.0
4.7,607.0
4.71,624.0
4.72,640.0
4.73,653.0
4.74,664.0
4.75,672.0
4.76,673.0
4.7700000000000005,664.0
4.78,650.0
4.79,617.0
4.8,589.0
4.8100000000000005,560.0
4.82,543.0
4.83,526.0
4.84,519.0
4.8500000000000005,517.0
4.86,513.0
4.87,512.0
4.88,511.0
4.89,517.0
4.9,520.0
4.91,522.0
4.92,524.0
4.93,524.0
4.94,529.0
4.95,526.0
4.96,531.0
4.97,530.0
4.98,528.0
4.99,528.0
5.0,525.0
5.01,524.0
5.0200000000000005,530.0
5.03,526.0
5.04,525.0
5.05,529.0
5.0600000000000005,528.0
5.07,526.0
5.08,526.0
5.09,528.0
5.1000000000000005,526.0
5.11,524.0
5.12,528.0
5.13,528.0
5.14,529.0
5.15,531.0
5.16,531.0
5.17,531.0
5.18,533.0
5.19,533.0
5.2,532.0
5.21,533.0
5.22,533.0
5.23,534.0
5.24,535.0
5.25,537.0
5.26,535.0
5.2700000000000005,536.0
5.28,541.0
5.29,542.0
5.3,561.0
5.3100000000000005,572.0
5.32,583.0
5.33,578.0
5.34,545.0
5.3500000000000005,542.0
5.36,544.0
5.37,529.0
5.38,526.0
5.39,526.0
5.4,529.0
5.41,518.0
5.42,492.0
5.43,614.0
5.44,871.0
5.45,1024.0
5.46,553.0
5.47,466.0
5.48,502.0
5.49,520.0
5.5,535.0
5.51,526.0
5.5200000000000005,534.0
5.53,536.0
5.54,541.0
5.55,546.0
5.5600000000000005,548.0
5.57,555.0
5.58,553.0
5.59,560.0
5.6000000000000005,568.0
5.61,572.0
5.62,581.0
5.63,590.0
5.64,598.0
5.65,615.0
5.66,627.0
5.67,643.0
5.68,651.0
5.69,656.0
5.7,660.0
5.71,656.0
5.72,640.0
5.73,617.0
5.74,584.0
5.75,559.0
5.76,534.0
5.7700000000000005,517.0
5.78,509.0
5.79,505.0
5.8,502.0
5.8100000000000005,504.0
5.82,502.0
5.83,506.0
5.84,508.0
5.8500000000000005,508.0
5.86,507.0
5.87,513.0
5.88,514.0
5.89,514.0
5.9,520.0
5.91,518.0
5.92,516.0
5.93,516.0
5.94,518.0
5.95,518.0
5.96,516.0
5.97,514.0
5.98,513.0
5.99,516.0
6.0,513.0
6.01,516.0
6.0200000000000005,516.0
6.03,517.0
6.04,514.0
6.05,516.0
6.0600000000000005,513.0
6.07,516.0
6.08,516.0
6.09,518.0
6.1000000000000005,517.0
6.11,521.0
6.12,518.0
6.13,525.0
6.140000000000001,526.0
6.15,526.0
6.16,543.0
6.17,553.0
6.18,564.0
6.19,558.0
6.2,537.0
6.21,532.0
6.22,525.0
6.23,516.0
6.24,517.0
6.25,513.0
6.26,520.0
6.2700000000000005,513.0
6.28,476.0
6.29,559.0
6.3,797.0
6.3100000000000005,1001.0
6.32,619.0
6.33,384.0
6.34,487.0
6.3500000000000005,494.0
6.36,532.0
6.37,521.0
6.38,528.0
6.390000000000001,536.0
6.4,540.0
6.41,542.0
6.42,546.0
6.43,550.0
6.44,554.0
6.45,555.0
6.46,564.0
6.47,572.0
6.48,571.0
6.49,585.0
6.5,600.0
6.51,607.0
6.5200000000000005,619.0
6.53,639.0
6.54,642.0
6.55,653.0
6.5600000000000005,657.0
6.57,654.0
6.58,639.0
6.59,612.0
6.6000000000000005,586.0
6.61,561.0
6.62,544.0
6.63,528.0
6.640000000000001,519.0
6.65,514.0
6.66,516.0
6.67,514.0
6.68,514.0
6.69,518.0
6.7,518.0
6.71,522.0
6.72,524.0
6.73,521.0
6.74,528.0
6.75,528.0
6.76,528.0
6.7700000000000005,528.0
6.78,530.0
6.79,528.0
6.8,528.0
6.8100000000000005,528.0
6.82,525.0
6.83,524.0
6.84,525.0
6.8500000000000005,528.0
6.86,531.0
6.87,530.0
6.88,530.0
6.890000000000001,529.0
6.9,529.0
6.91,531.0
6.92,528.0
6.93,530.0
6.94,531.0
6.95,531.0
6.96,531.0
6.97,531.0
6.98,531.0
6.99,534.0
7.0,537.0
7.01,557.0
7.0200000000000005,566.0
7.03,579.0
7.04,568.0
7.05,546.0
7.0600000000000005,542.0
7.07,535.0
7.08,530.0
7.09,524.0
7.1000000000000005,525.0
7.11,529.0
7.12,517.0
7.13,487.0
7.140000000000001,600.0
7.15,854.0
7.16,1024.0
7.17,562.0
7.18,436.0
7.19,498.0
7.2,511.0
7.21,536.0
7.22,522.0
7.23,531.0
7.24,533.0
7.25,537.0
7.26,541.0
7.2700000000000005,546.0
7.28,550.0
7.29,552.0
7.3,553.0
7.3100000000000005,562.0
7.32,570.0
7.33,578.0
7.34,589.0
7.3500000000000005,600.0
7.36,615.0
7.37,629.0
7.38,646.0
7.390000000000001,655.0
7.4,661.0
7.41,663.0
7.42,656.0
7.43,632.0
7.44,608.0
7.45,579.0
7.46,553.0
7.47,532.0
7.48,521.0
7.49,513.0
7.5,507.0
7.51,505.0
7.5200000000000005,508.0
7.53,507.0
7.54,512.0
7.55,512.0
7.5600000000000005,516.0
7.57,513.0
7.58,517.0
7.59,518.0
7.6000000000000005,517.0
7.61,521.0
7.62,522.0
7.63,521.0
7.640000000000001,516.0
7.65,516.0
7.66,516.0
7.67,516.0
7.68,516.0
7.69,513.0
7.7,516.0
7.71,514.0
7.72,517.0
7.73,513.0
7.74,519.0
7.75,514.0
7.76,513.0
7.7700000000000005,520.0
7.78,524.0
7.79,523.0
7.8,525.0
7.8100000000000005,523.0
7.82,524.0
7.83,525.0
7.84,525.0
7.8500000000000005,528.0
7.86,526.0
7.87,524.0
7.88,528.0
7.890000000000001,528.0
7.9,528.0
7.91,531.0
7.92,533.0
7.930000000000001,531.0
7.94,532.0
7.95,534.0
7.96,532.0
7.97,532.0
7.98,531.0
7.99,533.0
8.0,532.0
8.01,532.0
8.02,534.0
8.03,534.0
8.040000000000001,535.0
8.05,542.0
8.06,550.0
8.07,567.0
8.08,574.0
8.09,580.0
8.1,558.0
8.11,543.0
8.120000000000001,543.0
8.13,535.0
8.14,532.0
8.15,531.0
8.16,533.0
8.17,529.0
8.18,489.0
8.19,581.0
8.2,821.0
8.21,1024.0
8.22,672.0
8.23,456.0
8.24,512.0
8.25,520.0
8.26,538.0
8.27,522.0
8.28,532.0
8.290000000000001,533.0
8.3,537.0
8.31,542.0
8.32,546.0
8.33,550.0
8.34,556.0
8.35,559.0
8.36,566.0
8.370000000000001,572.0
8.38,580.0
8.39,590.0
8.4,601.0
8.41,615.0
8.42,625.0
8.43,640.0
8.44,653.0
8.45,662.0
8.46,667.0
8.47,664.0
8.48,656.0
8.49,636.0
8.5,609.0
8.51,580.0
8.52,555.0
8.53,537.0
8.540000000000001,529.0
8.55,522.0
8.56,521.0
8.57,518.0
8.58,518.0
8.59,518.0
8.6,520.0
8.61,524.0
8.620000000000001,525.0
8.63,523.0
8.64,525.0
8.65,525.0
8.66,526.0
8.67,526.0
8.68,525.0
8.69,526.0
8.700000000000001,524.0
8.71,524.0
8.72,526.0
8.73,525.0
8.74,525.0
8.75,525.0
8.76,522.0
8.77,523.0
8.78,522.0
8.790000000000001,524.0
8.8,525.0
8.81,522.0
8.82,524.0
8.83,522.0
8.84,521.0
8.85,522.0
8.86,521.0
8.870000000000001,525.0
8.88,524.0
8.89,525.0
8.9,522.0
8.91,525.0
8.92,523.0
8.93,522.0
8.94,522.0
8.950000000000001,525.0
8.96,524.0
8.97,530.0
8.98,524.0
8.99,525.0
9.0,526.0
9.01,531.0
9.02,526.0
9.03,526.0
9.040000000000001,531.0
9.05,530.0
9.06,530.0
9.07,531.0
9.08,537.0
9.09,559.0
9.1,561.0
9.11,574.0
9.120000000000001,542.0
9.13,531.0
9.14,534.0
9.15,519.0
9.16,518.0
9.17,522.0
9.18,518.0
9.19,508.0
9.200000000000001,481.0
9.21,602.0
9.22,866.0
9.23,1006.0
9.24,496.0
9.25,441.0
9.26,484.0
9.27,504.0
9.28,533.0
9.290000000000001,516.0
9.3,524.0
9.31,528.0
9.32,531.0
9.33,535.0
9.34,537.0
9.35,546.0
9.36,545.0
9.370000000000001,552.0
9.38,556.0
9.39,560.0
9.4,570.0
9.41,579.0
9.42,591.0
9.43,601.0
9.44,617.0
9.450000000000001,627.0
9.46,634.0
9.47,644.0
9.48,653.0
9.49,642.0
9.5,627.0
9.51,605.0
9.52,576.0
9.53,558.0
9.540000000000001,531.0
9.55,521.0
9.56,508.0
9.57,506.0
9.58,507.0
9.59,506.0
9.6,498.0
9.61,512.0
9.620000000000001,506.0
9.63,509.0
9.64,512.0
9.65,512.0
9.66,517.0
9.67,512.0
9.68,512.0
9.69,511.0
9.700000000000001,512.0
9.71,513.0
9.72,511.0
9.73,510.0
9.74,507.0
9.75,509.0
9.76,511.0
9.77,512.0
9.78,509.0
9.790000000000001,507.0
9.8,508.0
9.81,512.0
9.82,513.0
9.83,513.0
9.84,513.0
9.85,512.0
9.86,516.0
9.870000000000001,509.0
9.88,517.0
9.89,517.0
9.9,514.0
9.91,517.0
9.92,518.0
9.93,514.0
9.94,517.0
9.950000000000001,521.0
9.96,520.0
9.97,524.0
9.98,534.0
9.99,547.0
