Time,ADC
0.0,598.0
0.01,570.0
0.02,545.0
0.03,546.0
0.04,540.0
0.05,537.0
0.06,540.0
0.07,541.0
0.08,520.0
0.09,508.0
0.1,645.0
0.11,917.0
0.12,1024.0
0.13,533.0
0.14,493.0
0.15,516.0
0.16,542.0
0.17,546.0
0.18,541.0
0.19,550.0
0.2,552.0
0.21,553.0
0.22,560.0
0.23,562.0
0.24,566.0
0.25,568.0
0.26,574.0
0.27,581.0
0.28,590.0
0.29,598.0
0.3,604.0
0.31,618.0
0.32,634.0
0.33,649.0
0.34,662.0
0.35000000000000003,673.0
0.36,677.0
0.37,679.0
0.38,674.0
0.39,655.0
0.4,628.0
0.41000000000000003,601.0
0.42,577.0
0.43,555.0
0.44,543.0
0.45,535.0
0.46,533.0
0.47000000000000003,532.0
0.48,532.0
0.49,530.0
0.5,531.0
0.51,536.0
0.52,536.0
0.53,537.0
0.54,540.0
0.55,541.0
0.56,544.0
0.5700000000000001,541.0
0.58,541.0
0.59,541.0
0.6,542.0
0.61,536.0
0.62,537.0
0.63,537.0
0.64,534.0
0.65,534.0
0.66,534.0
0.67,534.0
0.68,534.0
0.6900000000000001,534.0
0.7000000000000001,536.0
0.71,533.0
0.72,534.0
0.73,534.0
0.74,532.0
0.75,531.0
0.76,531.0
0.77,531.0
0.78,530.0
0.79,531.0
0.8,530.0
0.81,531.0
0.8200000000000001,532.0
0.8300000000000001,532.0
0.84,532.0
0.85,533.0
0.86,536.0
0.87,533.0
0.88,532.0
0.89,534.0
0.9,533.0
0.91,532.0
0.92,533.0
0.93,534.0
0.9400000000000001,535.0
0.9500000000000001,532.0
0.96,535.0
0.97,549.0
0.98,569.0
0.99,580.0
1.0,591.0
1.01,556.0
1.02,540.0
1.03,533.0
1.04,526.0
1.05,525.0
1.06,522.0
1.07,526.0
1.08,507.0
1.09,492.0
1.1,617.0
1.11,877.0
1.12,1024.0
1.1300000000000001,507.0
1.1400000000000001,448.0
1.1500000000000001,489.0
1.16,509.0
1.17,532.0
1.18,521.0
1.19,531.0
1.2,534.0
1.21,533.0
1.22,541.0
1.23,544.0
1.24,545.0
1.25,552.0
1.26,554.0
1.27,558.0
1.28,566.0
1.29,576.0
1.3,584.0
1.31,593.0
1.32,606.0
1.33,617.0
1.34,634.0
1.35,644.0
1.36,644.0
1.37,646.0
1.3800000000000001,641.0
1.3900000000000001,625.0
1.4000000000000001,604.0
1.41,578.0
1.42,554.0
1.43,536.0
1.44,520.0
1.45,512.0
1.46,511.0
1.47,512.0
1.48,508.0
1.49,506.0
1.5,509.0
1.51,514.0
1.52,513.0
1.53,516.0
1.54,516.0
1.55,517.0
1.56,518.0
1.57,516.0
1.58,518.0
1.59,520.0
1.6,518.0
1.61,513.0
1.62,513.0
1.6300000000000001,512.0
1.6400000000000001,509.0
1.6500000000000001,514.0
1.6600000000000001,518.0
1.67,512.0
1.68,513.0
1.69,513.0
1.7,510.0
1.71,510.0
1.72,513.0
1.73,509.0
1.74,509.0
1.75,511.0
1.76,510.0
1.77,513.0
1.78,508.0
1.79,512.0
1.8,512.0
1.81,511.0
1.82,516.0
1.83,512.0
1.84,512.0
1.85,516.0
1.86,518.0
1.87,531.0
1.8800000000000001,546.0
1.8900000000000001,558.0
1.9000000000000001,559.0
1.9100000000000001,535.0
1.92,518.0
1.93,523.0
1.94,511.0
1.95,507.0
1.96,509.0
1.97,508.0
1.98,506.0
1.99,466.0
2.0,546.0
2.0100000000000002,780.0
2.02,1002.0
2.0300000000000002,651.0
2.04,378.0
2.05,475.0
2.06,474.0
2.07,518.0
2.08,505.0
2.09,509.0
2.1,517.0
2.11,519.0
2.12,524.0
2.13,528.0
2.14,531.0
2.15,535.0
2.16,541.0
2.17,548.0
2.18,553.0
2.19,560.0
2.2,569.0
2.21,582.0
2.22,596.0
2.23,609.0
2.24,625.0
2.25,638.0
2.2600000000000002,645.0
2.27,649.0
2.2800000000000002,645.0
2.29,629.0
2.3000000000000003,606.0
2.31,577.0
2.32,553.0
2.33,530.0
2.34,513.0
2.35,506.0
2.36,499.0
2.37,498.0
2.38,498.0
2.39,499.0
2.4,498.0
2.41,504.0
2.42,508.0
2.43,508.0
2.44,511.0
2.45,513.0
2.46,516.0
2.47,516.0
2.48,516.0
2.49,516.0
2.5,516.0
2.5100000000000002,514.0
2.52,516.0
2.5300000000000002,513.0
2.54,513.0
2.5500000000000003,513.0
2.56,516.0
2.57,519.0
2.58,516.0
2.59,516.0
2.6,521.0
2.61,518.0
2.62,519.0
2.63,519.0
2.64,522.0
2.65,520.0
2.66,521.0
2.67,523.0
2.68,522.0
2.69,523.0
2.7,525.0
2.71,525.0
2.72,525.0
2.73,526.0
2.74,528.0
2.75,530.0
2.7600000000000002,530.0
2.77,528.0
2.7800000000000002,530.0
2.79,530.0
2.8000000000000003,531.0
2.81,532.0
2.82,535.0
2.83,554.0
2.84,567.0
2.85,577.0
2.86,565.0
2.87,541.0
2.88,535.0
2.89,532.0
2.9,522.0
2.91,522.0
2.92,522.0
2.93,525.0
2.94,512.0
2.95,498.0
2.96,641.0
2.97,905.0
2.98,1024.0
2.99,510.0
3.0,478.0
3.0100000000000002,496.0
3.02,526.0
3.0300000000000002,530.0
3.04,523.0
3.0500000000000003,533.0
3.06,533.0
3.0700000000000003,537.0
3.08,542.0
3.09,543.0
3.1,547.0
3.11,552.0
3.12,554.0
3.13,561.0
3.14,569.0
3.15,578.0
3.16,590.0
3.17,602.0
3.18,617.0
3.19,632.0
3.2,648.0
3.21,661.0
3.22,664.0
3.23,666.0
3.24,661.0
3.25,642.0
3.2600000000000002,615.0
3.27,585.0
3.2800000000000002,558.0
3.29,535.0
3.3000000000000003,524.0
3.31,514.0
3.3200000000000003,507.0
3.33,511.0
3.34,511.0
3.35,511.0
3.36,514.0
3.37,516.0
3.38,518.0
3.39,518.0
3.4,520.0
3.41,521.0
3.42,523.0
3.43,522.0
3.44,522.0
3.45,525.0
3.46,524.0
3.47,522.0
3.48,522.0
3.49,521.0
3.5,522.0
3.5100000000000002,523.0
3.52,521.0
3.5300000000000002,520.0
3.54,518.0
3.5500000000000003,521.0
3.56,522.0
3.5700000000000003,523.0
3.58,522.0
3.59,522.0
3.6,520.0
3.61,520.0
3.62,523.0
3.63,524.0
3.64,521.0
3.65,524.0
3.66,525.0
3.67,519.0
3.68,524.0
3.69,522.0
3.7,521.0
3.71,524.0
3.72,517.0
3.73,516.0
3.74,516.0
3.75,513.0
3.7600000000000002,517.0
3.77,517.0
3.7800000000000002,517.0
3.79,517.0
3.8000000000000003,514.0
3.81,514.0
3.8200000000000003,514.0
3.83,516.0
3.84,532.0
3.85,546.0
3.86,555.0
3.87,553.0
3.88,521.0
3.89,514.0
3.9,513.0
3.91,502.0
3.92,496.0
3.93,498.0
3.94,497.0
3.95,476.0
3.96,457.0
3.97,588.0
3.98,843.0
3.99,996.0
4.0,477.0
4.01,416.0
4.0200000000000005,449.0
4.03,470.0
4.04,486.0
4.05,470.0
4.0600000000000005,480.0
4.07,482.0
4.08,481.0
4.09,486.0
4.1,488.0
4.11,493.0
4.12,492.0
4.13,497.0
4.14,496.0
4.15,506.0
4.16,509.0
4.17,513.0
4.18,525.0
4.19,535.0
4.2,545.0
4.21,559.0
4.22,570.0
4.23,571.0
4.24,571.0
4.25,565.0
4.26,553.0
4.2700000000000005,528.0
4.28,497.0
4.29,474.0
4.3,452.0
4.3100000000000005,433.0
4.32,416.0
4.33,411.0
4.34,410.0
4.3500000000000005,405.0
4.36,402.0
4.37,402.0
4.38,403.0
4.39,403.0
4.4,403.0
4.41,403.0
4.42,404.0
4.43,402.0
4.44,401.0
4.45,398.0
4.46,398.0
4.47,397.0
4.48,396.0
4.49,388.0
4.5,390.0
4.51,385.0
4.5200000000000005,387.0
4.53,385.0
4.54,385.0
4.55,379.0
4.5600000000000005,379.0
4.57,378.0
4.58,378.0
4.59,375.0
4.6000000000000005,374.0
4.61,375.0
4.62,374.0
4.63,376.0
4.64,372.0
4.65,373.0
4.66,374.0
4.67,373.0
4.68,374.0
4.69,373.0
4.7,374.0
4.71,375.0
4.72,378.0
4.73,393.0
4.74,402.0
4.75,414.0
4.76,417.0
4.7700000000000005,393.0
4.78,382.0
4.79,384.0
4.8,375.0
4.8100000000000005,372.0
4.82,376.0
4.83,379.0
4.84,367.0
4.8500000000000005,336.0
4.86,433.0
4.87,690.0
4.88,878.0
4.89,457.0
4.9,272.0
4.91,355.0
4.92,360.0
4.93,402.0
4.94,388.0
4.95,396.0
4.96,401.0
4.97,406.0
4.98,409.0
4.99,414.0
5.0,423.0
5.01,428.0
5.0200000000000005,430.0
5.03,439.0
5.04,448.0
5.05,459.0
5.0600000000000005,465.0
5.07,480.0
5.08,494.0
5.09,507.0
5.1000000000000005,522.0
5.11,537.0
5.12,546.0
5.13,546.0
5.14,548.0
5.15,537.0
5.16,512.0
5.17,487.0
5.18,465.0
5.19,444.0
5.2,435.0
5.21,427.0
5.22,426.0
5.23,425.0
5.24,426.0
5.25,429.0
5.26,432.0
5.2700000000000005,439.0
5.28,440.0
5.29,446.0
5.3,449.0
5.3100000000000005,454.0
5.32,457.0
5.33,458.0
5.34,461.0
5.3500000000000005,463.0
5.36,466.0
5.37,469.0
5.38,470.0
5.39,471.0
5.4,477.0
5.41,481.0
5.42,480.0
5.43,484.0
5.44,485.0
5.45,488.0
5.46,493.0
5.47,493.0
5.48,492.0
5.49,496.0
5.5,497.0
5.51,501.0
5.5200000000000005,505.0
5.53,504.0
5.54,508.0
5.55,507.0
5.5600000000000005,511.0
5.57,514.0
5.58,512.0
5.59,513.0
5.6000000000000005,514.0
5.61,520.0
5.62,522.0
5.63,524.0
5.64,532.0
5.65,541.0
5.66,564.0
5.67,576.0
5.68,578.0
5.69,558.0
5.7,544.0
5.71,544.0
5.72,536.0
5.73,533.0
5.74,534.0
5.75,538.0
5.76,536.0
5.7700000000000005,504.0
5.78,584.0
5.79,817.0
5.8,1024.0
5.8100000000000005,704.0
5.82,437.0
5.83,521.0
5.84,521.0
5.8500000000000005,555.0
5.86,541.0
5.87,547.0
5.88,553.0
5.89,558.0
5.9,561.0
5.91,568.0
5.92,570.0
5.93,571.0
5.94,579.0
5.95,590.0
5.96,595.0
5.97,606.0
5.98,612.0
5.99,625.0
6.0,641.0
6.01,656.0
6.0200000000000005,672.0
6.03,688.0
6.04,696.0
6.05,703.0
6.0600000000000005,703.0
6.07,686.0
6.08,665.0
6.09,638.0
6.1000000000000005,612.0
6.11,586.0
6.12,568.0
6.13,558.0
6.140000000000001,553.0
6.15,552.0
6.16,553.0
6.17,553.0
6.18,552.0
6.19,559.0
6.2,559.0
6.21,560.0
6.22,562.0
6.23,566.0
6.24,566.0
6.25,566.0
6.26,567.0
6.2700000000000005,569.0
6.28,566.0
6.29,567.0
6.3,568.0
6.3100000000000005,566.0
6.32,567.0
6.33,568.0
6.34,566.0
6.3500000000000005,562.0
6.36,561.0
6.37,566.0
6.38,569.0
6.390000000000001,566.0
6.4,561.0
6.41,567.0
6.42,562.0
6.43,560.0
6.44,561.0
6.45,565.0
6.46,561.0
6.47,560.0
6.48,560.0
6.49,559.0
6.5,559.0
6.51,559.0
6.5200000000000005,558.0
6.53,556.0
6.54,557.0
6.55,556.0
6.5600000000000005,553.0
6.57,554.0
6.58,555.0
6.59,549.0
6.6000000000000005,555.0
6.61,558.0
6.62,576.0
6.63,583.0
6.640000000000001,591.0
6.65,562.0
6.66,543.0
6.67,543.0
6.68,533.0
6.69,528.0
6.7,523.0
6.71,521.0
6.72,521.0
6.73,488.0
6.74,535.0
6.75,753.0
6.76,1013.0
6.7700000000000005,758.0
6.78,386.0
6.79,478.0
6.8,472.0
6.8100000000000005,513.0
6.82,496.0
6.83,499.0
6.84,504.0
6.8500000000000005,502.0
6.86,504.0
6.87,502.0
6.88,508.0
6.890000000000001,508.0
6.9,512.0
6.91,514.0
6.92,522.0
6.93,530.0
6.94,533.0
6.95,542.0
6.96,552.0
6.97,562.0
6.98,574.0
6.99,586.0
7.0,591.0
7.01,593.0
7.0200000000000005,591.0
7.03,580.0
7.04,555.0
7.05,526.0
7.0600000000000005,502.0
7.07,477.0
7.08,460.0
7.09,444.0
7.1000000000000005,442.0
7.11,437.0
7.12,436.0
7.13,432.0
7.140000000000001,433.0
7.15,435.0
7.16,437.0
7.17,437.0
7.18,437.0
7.19,439.0
7.2,436.0
7.21,439.0
7.22,445.0
7.23,441.0
7.24,446.0
7.25,439.0
7.26,440.0
7.2700000000000005,441.0
7.28,444.0
7.29,444.0
7.3,440.0
7.3100000000000005,441.0
7.32,445.0
7.33,441.0
7.34,442.0
7.3500000000000005,444.0
7.36,446.0
7.37,449.0
7.38,447.0
7.390000000000001,449.0
7.4,450.0
7.41,452.0
7.42,454.0
7.43,454.0
7.44,456.0
7.45,457.0
7.46,461.0
7.47,461.0
7.48,465.0
7.49,470.0
7.5,488.0
7.51,499.0
7.5200000000000005,512.0
7.53,493.0
7.54,475.0
7.55,481.0
7.5600000000000005,472.0
7.57,468.0
7.58,470.0
7.59,476.0
7.6000000000000005,473.0
7.61,441.0
7.62,475.0
7.63,673.0
7.640000000000001,925.0
7.65,794.0
7.66,342.0
7.67,442.0
7.68,447.0
7.69,486.0
7.7,497.0
7.71,493.0
7.72,505.0
7.73,507.0
7.74,512.0
7.75,521.0
7.76,522.0
7.7700000000000005,526.0
7.78,533.0
7.79,537.0
7.8,548.0
7.8100000000000005,555.0
7.82,566.0
7.83,579.0
7.84,593.0
7.8500000000000005,607.0
7.86,626.0
7.87,640.0
7.88,651.0
7.890000000000001,658.0
7.9,661.0
7.91,645.0
7.92,626.0
7.930000000000001,595.0
7.94,569.0
7.95,550.0
7.96,534.0
7.97,526.0
7.98,522.0
7.99,518.0
8.0,521.0
8.01,520.0
8.02,518.0
8.03,526.0
8.040000000000001,531.0
8.05,531.0
8.06,531.0
8.07,533.0
8.08,534.0
8.09,535.0
8.1,543.0
8.11,542.0
8.120000000000001,544.0
8.13,543.0
8.14,544.0
8.15,542.0
8.16,542.0
8.17,543.0
8.18,543.0
8.19,545.0
8.2,544.0
8.21,546.0
8.22,545.0
8.23,545.0
8.24,547.0
8.25,545.0
8.26,546.0
8.27,548.0
8.28,550.0
8.290000000000001,550.0
8.3,552.0
8.31,556.0
8.32,555.0
8.33,555.0
8.34,555.0
8.35,558.0
8.36,556.0
8.370000000000001,557.0
8.38,560.0
8.39,559.0
8.4,566.0
8.41,570.0
8.42,594.0
8.43,602.0
8.44,609.0
8.45,584.0
8.46,567.0
8.47,571.0
8.48,566.0
8.49,556.0
8.5,558.0
8.51,559.0
8.52,556.0
8.53,521.0
8.540000000000001,586.0
8.55,811.0
8.56,1024.0
8.57,810.0
8.58,442.0
8.59,532.0
8.6,530.0
8.61,571.0
8.620000000000001,559.0
8.63,561.0
8.64,569.0
8.65,576.0
8.66,581.0
8.67,582.0
8.68,585.0
8.69,590.0
8.700000000000001,595.0
8.71,604.0
8.72,609.0
8.73,615.0
8.74,626.0
8.75,638.0
8.76,652.0
8.77,667.0
8.78,681.0
8.790000000000001,693.0
8.8,708.0
8.81,714.0
8.82,713.0
8.83,704.0
8.84,674.0
8.85,642.0
8.86,618.0
8.870000000000001,591.0
8.88,577.0
8.89,567.0
8.9,560.0
8.91,556.0
8.92,553.0
8.93,554.0
8.94,554.0
8.950000000000001,555.0
8.96,558.0
8.97,558.0
8.98,559.0
8.99,564.0
9.0,562.0
9.01,566.0
9.02,565.0
9.03,566.0
9.040000000000001,560.0
9.05,561.0
9.06,559.0
9.07,558.0
9.08,558.0
9.09,554.0
9.1,555.0
9.11,556.0
9.120000000000001,555.0
9.13,557.0
9.14,555.0
9.15,552.0
9.16,553.0
9.17,556.0
9.18,554.0
9.19,553.0
9.200000000000001,554.0
9.21,555.0
9.22,554.0
9.23,550.0
9.24,554.0
9.25,552.0
9.26,549.0
9.27,548.0
9.28,550.0
9.290000000000001,549.0
9.3,548.0
9.31,548.0
9.32,548.0
9.33,553.0
9.34,556.0
9.35,577.0
9.36,584.0
9.370000000000001,594.0
9.38,571.0
9.39,552.0
9.4,547.0
9.41,537.0
9.42,536.0
9.43,533.0
9.44,532.0
9.450000000000001,532.0
9.46,494.0
9.47,537.0
9.48,741.0
9.49,1001.0
9.5,834.0
9.51,391.0
9.52,492.0
9.53,496.0
9.540000000000001,533.0
9.55,532.0
9.56,531.0
9.57,540.0
9.58,542.0
9.59,545.0
9.6,548.0
9.61,555.0
9.620000000000001,556.0
9.63,560.0
9.64,565.0
9.65,573.0
9.66,577.0
9.67,589.0
9.68,598.0
9.69,609.0
9.700000000000001,625.0
9.71,641.0
9.72,651.0
9.73,660.0
9.74,661.0
9.75,661.0
9.76,651.0
9.77,628.0
9.78,597.0
9.790000000000001,572.0
9.8,550.0
9.81,535.0
9.82,526.0
9.83,519.0
9.84,517.0
9.85,516.0
9.86,514.0
9.870000000000001,513.0
9.88,518.0
9.89,521.0
9.9,520.0
9.91,517.0
9.92,520.0
9.93,523.0
9.94,523.0
9.950000000000001,525.0
9.96,526.0
9.97,526.0
9.98,524.0
9.99,525.0
