Time,ADC
0.0,601.0
0.01,609.0
0.02,614.0
0.03,613.0
0.04,612.0
0.05,624.0
0.06,629.0
0.07,632.0
0.08,636.0
0.09,644.0
0.1,650.0
0.11,661.0
0.12,672.0
0.13,684.0
0.14,697.0
0.15,711.0
0.16,721.0
0.17,730.0
0.18,734.0
0.19,733.0
0.2,713.0
0.21,679.0
0.22,652.0
0.23,629.0
0.24,615.0
0.25,604.0
0.26,593.0
0.27,595.0
0.28,596.0
0.29,594.0
0.3,597.0
0.31,598.0
0.32,595.0
0.33,595.0
0.34,598.0
0.35000000000000003,597.0
0.36,598.0
0.37,595.0
0.38,593.0
0.39,589.0
0.4,583.0
0.41000000000000003,581.0
0.42,578.0
0.43,576.0
0.44,577.0
0.45,576.0
0.46,572.0
0.47000000000000003,573.0
0.48,572.0
0.49,572.0
0.5,576.0
0.51,591.0
0.52,598.0
0.53,612.0
0.54,627.0
0.55,618.0
0.56,588.0
0.5700000000000001,560.0
0.58,543.0
0.59,542.0
0.6,541.0
0.61,538.0
0.62,533.0
0.63,532.0
0.64,487.0
0.65,544.0
0.66,770.0
0.67,1024.0
0.68,733.0
0.6900000000000001,409.0
0.7000000000000001,492.0
0.71,487.0
0.72,521.0
0.73,505.0
0.74,507.0
0.75,508.0
0.76,506.0
0.77,508.0
0.78,512.0
0.79,512.0
0.8,514.0
0.81,516.0
0.8200000000000001,522.0
0.8300000000000001,526.0
0.84,533.0
0.85,542.0
0.86,552.0
0.87,559.0
0.88,568.0
0.89,579.0
0.9,580.0
0.91,585.0
0.92,579.0
0.93,560.0
0.9400000000000001,528.0
0.9500000000000001,496.0
0.96,468.0
0.97,447.0
0.98,430.0
0.99,418.0
1.0,415.0
1.01,411.0
1.02,408.0
1.03,408.0
1.04,408.0
1.05,404.0
1.06,401.0
1.07,405.0
1.08,405.0
1.09,402.0
1.1,404.0
1.11,403.0
1.12,404.0
1.1300000000000001,403.0
1.1400000000000001,401.0
1.1500000000000001,399.0
1.16,396.0
1.17,397.0
1.18,398.0
1.19,397.0
1.2,397.0
1.21,396.0
1.22,396.0
1.23,397.0
1.24,398.0
1.25,396.0
1.26,402.0
1.27,416.0
1.28,428.0
1.29,442.0
1.3,462.0
1.31,450.0
1.32,422.0
1.33,397.0
1.34,382.0
1.35,378.0
1.36,384.0
1.37,386.0
1.3800000000000001,384.0
1.3900000000000001,378.0
1.4000000000000001,339.0
1.41,394.0
1.42,624.0
1.43,876.0
1.44,588.0
1.45,281.0
1.46,360.0
1.47,354.0
1.48,405.0
1.49,391.0
1.5,397.0
1.51,400.0
1.52,408.0
1.53,408.0
1.54,415.0
1.55,423.0
1.56,432.0
1.57,437.0
1.58,445.0
1.59,454.0
1.6,465.0
1.61,476.0
1.62,484.0
1.6300000000000001,502.0
1.6400000000000001,519.0
1.6500000000000001,528.0
1.6600000000000001,535.0
1.67,540.0
1.68,541.0
1.69,526.0
1.7,501.0
1.71,471.0
1.72,448.0
1.73,430.0
1.74,416.0
1.75,405.0
1.76,403.0
1.77,403.0
1.78,405.0
1.79,410.0
1.8,408.0
1.81,414.0
1.82,416.0
1.83,417.0
1.84,429.0
1.85,433.0
1.86,433.0
1.87,437.0
1.8800000000000001,441.0
1.8900000000000001,445.0
1.9000000000000001,439.0
1.9100000000000001,439.0
1.92,445.0
1.93,441.0
1.94,442.0
1.95,449.0
1.96,453.0
1.97,454.0
1.98,460.0
1.99,478.0
2.0,486.0
2.0100000000000002,506.0
2.02,522.0
2.0300000000000002,532.0
2.04,501.0
2.05,481.0
2.06,464.0
2.07,459.0
2.08,465.0
2.09,465.0
2.1,469.0
2.11,469.0
2.12,448.0
2.13,449.0
2.14,605.0
2.15,867.0
2.16,870.0
2.17,356.0
2.18,410.0
2.19,453.0
2.2,486.0
2.21,508.0
2.22,502.0
2.23,511.0
2.24,517.0
2.25,524.0
2.2600000000000002,530.0
2.27,537.0
2.2800000000000002,546.0
2.29,555.0
2.3000000000000003,566.0
2.31,570.0
2.32,579.0
2.33,593.0
2.34,607.0
2.35,618.0
2.36,641.0
2.37,654.0
2.38,660.0
2.39,663.0
2.4,666.0
2.41,660.0
2.42,632.0
2.43,604.0
2.44,583.0
2.45,560.0
2.46,550.0
2.47,542.0
2.48,537.0
2.49,540.0
2.5,536.0
2.5100000000000002,540.0
2.52,544.0
2.5300000000000002,548.0
2.54,550.0
2.5500000000000003,546.0
2.56,555.0
2.57,555.0
2.58,556.0
2.59,556.0
2.6,558.0
2.61,556.0
2.62,556.0
2.63,559.0
2.64,556.0
2.65,557.0
2.66,555.0
2.67,556.0
2.68,556.0
2.69,558.0
2.7,556.0
2.71,556.0
2.72,571.0
2.73,580.0
2.74,597.0
2.75,606.0
2.7600000000000002,622.0
2.77,597.0
2.7800000000000002,576.0
2.79,548.0
2.8000000000000003,541.0
2.81,535.0
2.82,536.0
2.83,536.0
2.84,533.0
2.85,525.0
2.86,487.0
2.87,589.0
2.88,836.0
2.89,1024.0
2.9,590.0
2.91,402.0
2.92,499.0
2.93,512.0
2.94,542.0
2.95,531.0
2.96,541.0
2.97,546.0
2.98,546.0
2.99,553.0
3.0,556.0
3.0100000000000002,561.0
3.02,561.0
3.0300000000000002,567.0
3.04,577.0
3.0500000000000003,585.0
3.06,595.0
3.0700000000000003,607.0
3.08,619.0
3.09,634.0
3.1,650.0
3.11,661.0
3.12,664.0
3.13,672.0
3.14,663.0
3.15,640.0
3.16,608.0
3.17,577.0
3.18,552.0
3.19,535.0
3.2,525.0
3.21,518.0
3.22,513.0
3.23,512.0
3.24,513.0
3.25,512.0
3.2600000000000002,516.0
3.27,518.0
3.2800000000000002,518.0
3.29,524.0
3.3000000000000003,525.0
3.31,529.0
3.3200000000000003,532.0
3.33,531.0
3.34,533.0
3.35,534.0
3.36,533.0
3.37,531.0
3.38,525.0
3.39,523.0
3.4,525.0
3.41,524.0
3.42,520.0
3.43,522.0
3.44,520.0
3.45,523.0
3.46,522.0
3.47,524.0
3.48,518.0
3.49,521.0
3.5,521.0
3.5100000000000002,522.0
3.52,523.0
3.5300000000000002,524.0
3.54,524.0
3.5500000000000003,524.0
3.56,524.0
3.5700000000000003,525.0
3.58,525.0
3.59,531.0
3.6,530.0
3.61,533.0
3.62,534.0
3.63,533.0
3.64,532.0
3.65,533.0
3.66,532.0
3.67,534.0
3.68,535.0
3.69,535.0
3.7,547.0
3.71,562.0
3.72,574.0
3.73,592.0
3.74,593.0
3.75,556.0
3.7600000000000002,545.0
3.77,543.0
3.7800000000000002,530.0
3.79,532.0
3.8000000000000003,535.0
3.81,533.0
3.8200000000000003,518.0
3.83,499.0
3.84,633.0
3.85,905.0
3.86,1024.0
3.87,514.0
3.88,482.0
3.89,506.0
3.9,532.0
3.91,536.0
3.92,528.0
3.93,537.0
3.94,534.0
3.95,535.0
3.96,543.0
3.97,547.0
3.98,553.0
3.99,554.0
4.0,560.0
4.01,567.0
4.0200000000000005,572.0
4.03,580.0
4.04,589.0
4.05,598.0
4.0600000000000005,614.0
4.07,624.0
4.08,633.0
4.09,639.0
4.1,645.0
4.11,643.0
4.12,629.0
4.13,605.0
4.14,578.0
4.15,547.0
4.16,522.0
4.17,507.0
4.18,499.0
4.19,498.0
4.2,493.0
4.21,494.0
4.22,494.0
4.23,497.0
4.24,499.0
4.25,501.0
4.26,504.0
4.2700000000000005,505.0
4.28,508.0
4.29,507.0
4.3,508.0
4.3100000000000005,510.0
4.32,506.0
4.33,507.0
4.34,508.0
4.3500000000000005,506.0
4.36,504.0
4.37,505.0
4.38,502.0
4.39,502.0
4.4,505.0
4.41,504.0
4.42,504.0
4.43,506.0
4.44,507.0
4.45,506.0
4.46,510.0
4.47,507.0
4.48,508.0
4.49,508.0
4.5,505.0
4.51,512.0
4.5200000000000005,509.0
4.53,509.0
4.54,513.0
4.55,508.0
4.5600000000000005,511.0
4.57,516.0
4.58,514.0
4.59,512.0
4.6000000000000005,521.0
4.61,544.0
4.62,550.0
4.63,568.0
4.64,569.0
4.65,532.0
4.66,522.0
4.67,513.0
4.68,505.0
4.69,506.0
4.7,508.0
4.71,508.0
4.72,485.0
4.73,481.0
4.74,637.0
4.75,895.0
4.76,920.0
4.7700000000000005,396.0
4.78,441.0
4.79,475.0
4.8,506.0
4.8100000000000005,518.0
4.82,513.0
4.83,521.0
4.84,522.0
4.8500000000000005,528.0
4.86,533.0
4.87,537.0
4.88,542.0
4.89,545.0
4.9,548.0
4.91,554.0
4.92,561.0
4.93,572.0
4.94,579.0
4.95,592.0
4.96,608.0
4.97,615.0
4.98,624.0
4.99,632.0
5.0,636.0
5.01,628.0
5.0200000000000005,615.0
5.03,586.0
5.04,562.0
5.05,538.0
5.0600000000000005,517.0
5.07,502.0
5.08,498.0
5.09,492.0
5.1000000000000005,492.0
5.11,490.0
5.12,489.0
5.13,494.0
5.14,495.0
5.15,493.0
5.16,494.0
5.17,494.0
5.18,501.0
5.19,498.0
5.2,501.0
5.21,504.0
5.22,499.0
5.23,496.0
5.24,502.0
5.25,497.0
5.26,496.0
5.2700000000000005,496.0
5.28,493.0
5.29,493.0
5.3,490.0
5.3100000000000005,488.0
5.32,487.0
5.33,486.0
5.34,485.0
5.3500000000000005,480.0
5.36,478.0
5.37,480.0
5.38,478.0
5.39,475.0
5.4,475.0
5.41,471.0
5.42,471.0
5.43,466.0
5.44,466.0
5.45,460.0
5.46,473.0
5.47,494.0
5.48,501.0
5.49,511.0
5.5,480.0
5.51,449.0
5.5200000000000005,447.0
5.53,435.0
5.54,429.0
5.55,428.0
5.5600000000000005,426.0
5.57,415.0
5.58,378.0
5.59,470.0
5.6000000000000005,702.0
5.61,915.0
5.62,500.0
5.63,288.0
5.64,382.0
5.65,382.0
5.66,420.0
5.67,401.0
5.68,405.0
5.69,409.0
5.7,406.0
5.71,412.0
5.72,412.0
5.73,414.0
5.74,415.0
5.75,422.0
5.76,427.0
5.7700000000000005,434.0
5.78,440.0
5.79,450.0
5.8,462.0
5.8100000000000005,474.0
5.82,492.0
5.83,501.0
5.84,508.0
5.8500000000000005,513.0
5.86,513.0
5.87,494.0
5.88,465.0
5.89,433.0
5.9,397.0
5.91,374.0
5.92,358.0
5.93,348.0
5.94,338.0
5.95,343.0
5.96,339.0
5.97,337.0
5.98,336.0
5.99,346.0
6.0,349.0
6.01,349.0
6.0200000000000005,348.0
6.03,354.0
6.04,355.0
6.05,357.0
6.0600000000000005,354.0
6.07,358.0
6.08,353.0
6.09,355.0
6.1000000000000005,354.0
6.11,356.0
6.12,353.0
6.13,357.0
6.140000000000001,355.0
6.15,356.0
6.16,355.0
6.17,355.0
6.18,356.0
6.19,358.0
6.2,358.0
6.21,363.0
6.22,367.0
6.23,363.0
6.24,366.0
6.25,368.0
6.26,368.0
6.2700000000000005,376.0
6.28,376.0
6.29,377.0
6.3,378.0
6.3100000000000005,382.0
6.32,385.0
6.33,386.0
6.34,392.0
6.3500000000000005,402.0
6.36,432.0
6.37,446.0
6.38,456.0
6.390000000000001,434.0
6.4,406.0
6.41,416.0
6.42,405.0
6.43,405.0
6.44,413.0
6.45,413.0
6.46,402.0
6.47,389.0
6.48,505.0
6.49,760.0
6.5,893.0
6.51,392.0
6.5200000000000005,321.0
6.53,405.0
6.54,426.0
6.55,459.0
6.5600000000000005,449.0
6.57,463.0
6.58,468.0
6.59,471.0
6.6000000000000005,476.0
6.61,489.0
6.62,494.0
6.63,499.0
6.640000000000001,506.0
6.65,520.0
6.66,526.0
6.67,541.0
6.68,549.0
6.69,562.0
6.7,579.0
6.71,593.0
6.72,609.0
6.73,619.0
6.74,622.0
6.75,624.0
6.76,614.0
6.7700000000000005,590.0
6.78,560.0
6.79,541.0
6.8,519.0
6.8100000000000005,507.0
6.82,500.0
6.83,496.0
6.84,498.0
6.8500000000000005,501.0
6.86,504.0
6.87,507.0
6.88,513.0
6.890000000000001,517.0
6.9,513.0
6.91,518.0
6.92,525.0
6.93,526.0
6.94,531.0
6.95,533.0
6.96,533.0
6.97,530.0
6.98,532.0
6.99,533.0
7.0,534.0
7.01,535.0
7.0200000000000005,537.0
7.03,535.0
7.04,541.0
7.05,543.0
7.0600000000000005,550.0
7.07,544.0
7.08,544.0
7.09,545.0
7.1000000000000005,550.0
7.11,553.0
7.12,553.0
7.13,554.0
7.140000000000001,554.0
7.15,554.0
7.16,560.0
7.17,562.0
7.18,564.0
7.19,562.0
7.2,562.0
7.21,569.0
7.22,593.0
7.23,606.0
7.24,617.0
7.25,620.0
7.26,579.0
7.2700000000000005,573.0
7.28,569.0
7.29,558.0
7.3,562.0
7.3100000000000005,561.0
7.32,565.0
7.33,542.0
7.34,547.0
7.3500000000000005,727.0
7.36,993.0
7.37,975.0
7.38,454.0
7.390000000000001,528.0
7.4,552.0
7.41,584.0
7.42,585.0
7.43,580.0
7.44,588.0
7.45,589.0
7.46,597.0
7.47,598.0
7.48,605.0
7.49,605.0
7.5,615.0
7.51,617.0
7.5200000000000005,630.0
7.53,636.0
7.54,646.0
7.55,654.0
7.5600000000000005,674.0
7.57,681.0
7.58,699.0
7.59,711.0
7.6000000000000005,717.0
7.61,714.0
7.62,710.0
7.63,679.0
7.640000000000001,655.0
7.65,621.0
7.66,590.0
7.67,568.0
7.68,558.0
7.69,549.0
7.7,545.0
7.71,544.0
7.72,545.0
7.73,540.0
7.74,545.0
7.75,552.0
7.76,550.0
7.7700000000000005,549.0
7.78,548.0
7.79,553.0
7.8,554.0
7.8100000000000005,555.0
7.82,554.0
7.83,558.0
7.84,553.0
7.8500000000000005,552.0
7.86,553.0
7.87,550.0
7.88,545.0
7.890000000000001,546.0
7.9,548.0
7.91,549.0
7.92,548.0
7.930000000000001,548.0
7.94,546.0
7.95,546.0
7.96,546.0
7.97,546.0
7.98,547.0
7.99,546.0
8.0,550.0
8.01,550.0
8.02,548.0
8.03,552.0
8.040000000000001,552.0
8.05,553.0
8.06,572.0
8.07,586.0
8.08,597.0
8.09,595.0
8.1,553.0
8.11,546.0
8.120000000000001,544.0
8.13,530.0
8.14,532.0
8.15,531.0
8.16,534.0
8.17,501.0
8.18,512.0
8.19,691.0
8.2,962.0
8.21,927.0
8.22,400.0
8.23,477.0
8.24,494.0
8.25,525.0
8.26,529.0
8.27,522.0
8.28,532.0
8.290000000000001,533.0
8.3,533.0
8.31,542.0
8.32,546.0
8.33,550.0
8.34,554.0
8.35,560.0
8.36,569.0
8.370000000000001,576.0
8.38,583.0
8.39,596.0
8.4,609.0
8.41,626.0
8.42,637.0
8.43,649.0
8.44,653.0
8.45,657.0
8.46,651.0
8.47,631.0
8.48,600.0
8.49,567.0
8.5,542.0
8.51,519.0
8.52,507.0
8.53,502.0
8.540000000000001,498.0
8.55,496.0
8.56,496.0
8.57,493.0
8.58,493.0
8.59,494.0
8.6,499.0
8.61,498.0
8.620000000000001,502.0
8.63,505.0
8.64,506.0
8.65,505.0
8.66,506.0
8.67,506.0
8.68,502.0
8.69,504.0
8.700000000000001,499.0
8.71,499.0
8.72,499.0
8.73,499.0
8.74,498.0
8.75,499.0
8.76,498.0
8.77,499.0
8.78,499.0
8.790000000000001,498.0
8.8,498.0
8.81,501.0
8.82,499.0
8.83,500.0
8.84,502.0
8.85,502.0
8.86,502.0
8.870000000000001,504.0
8.88,505.0
8.89,525.0
8.9,545.0
8.91,554.0
8.92,567.0
8.93,522.0
8.94,509.0
8.950000000000001,509.0
8.96,496.0
8.97,499.0
8.98,502.0
8.99,499.0
9.0,483.0
9.01,470.0
9.02,624.0
9.03,906.0
9.040000000000001,1017.0
9.05,449.0
9.06,430.0
9.07,485.0
9.08,508.0
9.09,511.0
9.1,507.0
9.11,516.0
9.120000000000001,516.0
9.13,518.0
9.14,530.0
9.15,532.0
9.16,537.0
9.17,543.0
9.18,546.0
9.19,555.0
9.200000000000001,561.0
9.21,571.0
9.22,581.0
9.23,596.0
9.24,609.0
9.25,626.0
9.26,638.0
9.27,646.0
9.28,650.0
9.290000000000001,644.0
9.3,624.0
9.31,590.0
9.32,556.0
9.33,525.0
9.34,499.0
9.35,487.0
9.36,476.0
9.370000000000001,474.0
9.38,474.0
9.39,474.0
9.4,471.0
9.41,471.0
9.42,478.0
9.43,478.0
9.44,475.0
9.450000000000001,476.0
9.46,477.0
9.47,478.0
9.48,477.0
9.49,477.0
9.5,475.0
9.51,473.0
9.52,471.0
9.53,471.0
9.540000000000001,469.0
9.55,469.0
9.56,464.0
9.57,464.0
9.58,464.0
9.59,460.0
9.6,461.0
9.61,459.0
9.620000000000001,457.0
9.63,461.0
9.64,458.0
9.65,458.0
9.66,456.0
9.67,459.0
9.68,459.0
9.69,458.0
9.700000000000001,458.0
9.71,459.0
9.72,476.0
9.73,493.0
9.74,499.0
9.75,512.0
9.76,473.0
9.77,449.0
9.78,448.0
9.790000000000001,437.0
9.8,435.0
9.81,435.0
9.82,434.0
9.83,416.0
9.84,386.0
9.85,518.0
9.86,793.0
9.870000000000001,968.0
9.88,450.0
9.89,345.0
9.9,403.0
9.91,426.0
9.92,436.0
9.93,426.0
9.94,432.0
9.950000000000001,433.0
9.96,430.0
9.97,436.0
9.98,442.0
9.99,446.0
