Time,ADC
0.0,509.0
0.01,509.0
0.02,508.0
0.03,512.0
0.04,516.0
0.05,512.0
0.06,519.0
0.07,519.0
0.08,519.0
0.09,521.0
0.1,517.0
0.11,521.0
0.12,521.0
0.13,518.0
0.14,517.0
0.15,517.0
0.16,513.0
0.17,513.0
0.18,517.0
0.19,512.0
0.2,514.0
0.21,513.0
0.22,508.0
0.23,517.0
0.24,512.0
0.25,511.0
0.26,513.0
0.27,512.0
0.28,512.0
0.29,512.0
0.3,512.0
0.31,514.0
0.32,519.0
0.33,516.0
0.34,520.0
0.35000000000000003,521.0
0.36,520.0
0.37,525.0
0.38,524.0
0.39,528.0
0.4,535.0
0.41000000000000003,548.0
0.42,561.0
0.43,590.0
0.44,558.0
0.45,543.0
0.46,536.0
0.47000000000000003,534.0
0.48,526.0
0.49,529.0
0.5,531.0
0.51,532.0
0.52,525.0
0.53,470.0
0.54,543.0
0.55,840.0
0.56,1024.0
0.5700000000000001,890.0
0.58,492.0
0.59,518.0
0.6,528.0
0.61,531.0
0.62,523.0
0.63,530.0
0.64,528.0
0.65,536.0
0.66,547.0
0.67,553.0
0.68,556.0
0.6900000000000001,568.0
0.7000000000000001,567.0
0.71,583.0
0.72,593.0
0.73,606.0
0.74,616.0
0.75,634.0
0.76,656.0
0.77,674.0
0.78,688.0
0.79,700.0
0.8,700.0
0.81,686.0
0.8200000000000001,661.0
0.8300000000000001,626.0
0.84,590.0
0.85,562.0
0.86,543.0
0.87,533.0
0.88,525.0
0.89,526.0
0.9,529.0
0.91,530.0
0.92,532.0
0.93,532.0
0.9400000000000001,530.0
0.9500000000000001,532.0
0.96,533.0
0.97,533.0
0.98,534.0
0.99,534.0
1.0,537.0
1.01,536.0
1.02,534.0
1.03,535.0
1.04,536.0
1.05,535.0
1.06,534.0
1.07,540.0
1.08,541.0
1.09,536.0
1.1,537.0
1.11,542.0
1.12,545.0
1.1300000000000001,544.0
1.1400000000000001,546.0
1.1500000000000001,549.0
1.16,552.0
1.17,550.0
1.18,550.0
1.19,553.0
1.2,553.0
1.21,552.0
1.22,546.0
1.23,548.0
1.24,549.0
1.25,549.0
1.26,558.0
1.27,571.0
1.28,584.0
1.29,609.0
1.3,580.0
1.31,556.0
1.32,554.0
1.33,546.0
1.34,544.0
1.35,544.0
1.36,543.0
1.37,541.0
1.3800000000000001,512.0
1.3900000000000001,474.0
1.4000000000000001,625.0
1.41,1023.0
1.42,1024.0
1.43,556.0
1.44,531.0
1.45,497.0
1.46,526.0
1.47,532.0
1.48,526.0
1.49,535.0
1.5,542.0
1.51,546.0
1.52,552.0
1.53,556.0
1.54,562.0
1.55,571.0
1.56,578.0
1.57,589.0
1.58,601.0
1.59,615.0
1.6,629.0
1.61,645.0
1.62,665.0
1.6300000000000001,679.0
1.6400000000000001,692.0
1.6500000000000001,699.0
1.6600000000000001,700.0
1.67,682.0
1.68,650.0
1.69,614.0
1.7,584.0
1.71,561.0
1.72,548.0
1.73,535.0
1.74,535.0
1.75,534.0
1.76,537.0
1.77,540.0
1.78,543.0
1.79,545.0
1.8,546.0
1.81,546.0
1.82,547.0
1.83,546.0
1.84,548.0
1.85,547.0
1.86,546.0
1.87,546.0
1.8800000000000001,546.0
1.8900000000000001,548.0
1.9000000000000001,545.0
1.9100000000000001,543.0
1.92,544.0
1.93,546.0
1.94,545.0
1.95,542.0
1.96,543.0
1.97,543.0
1.98,542.0
1.99,544.0
2.0,545.0
2.0100000000000002,543.0
2.02,542.0
2.0300000000000002,545.0
2.04,545.0
2.05,545.0
2.06,541.0
2.07,545.0
2.08,567.0
2.09,579.0
2.1,586.0
2.11,590.0
2.12,550.0
2.13,546.0
2.14,541.0
2.15,535.0
2.16,537.0
2.17,535.0
2.18,537.0
2.19,516.0
2.2,468.0
2.21,597.0
2.22,969.0
2.23,1024.0
2.24,574.0
2.25,519.0
2.2600000000000002,501.0
2.27,516.0
2.2800000000000002,536.0
2.29,530.0
2.3000000000000003,535.0
2.31,536.0
2.32,545.0
2.33,553.0
2.34,553.0
2.35,559.0
2.36,561.0
2.37,574.0
2.38,580.0
2.39,592.0
2.4,605.0
2.41,622.0
2.42,643.0
2.43,656.0
2.44,674.0
2.45,680.0
2.46,685.0
2.47,678.0
2.48,664.0
2.49,631.0
2.5,592.0
2.5100000000000002,565.0
2.52,546.0
2.5300000000000002,536.0
2.54,526.0
2.5500000000000003,526.0
2.56,526.0
2.57,531.0
2.58,531.0
2.59,528.0
2.6,534.0
2.61,533.0
2.62,532.0
2.63,537.0
2.64,541.0
2.65,541.0
2.66,542.0
2.67,542.0
2.68,541.0
2.69,542.0
2.7,542.0
2.71,542.0
2.72,541.0
2.73,542.0
2.74,542.0
2.75,543.0
2.7600000000000002,541.0
2.77,545.0
2.7800000000000002,544.0
2.79,545.0
2.8000000000000003,546.0
2.81,543.0
2.82,542.0
2.83,544.0
2.84,546.0
2.85,547.0
2.86,569.0
2.87,580.0
2.88,585.0
2.89,584.0
2.9,550.0
2.91,550.0
2.92,538.0
2.93,541.0
2.94,543.0
2.95,533.0
2.96,544.0
2.97,505.0
2.98,488.0
2.99,669.0
3.0,1024.0
3.0100000000000002,1024.0
3.02,595.0
3.0300000000000002,538.0
3.04,520.0
3.0500000000000003,545.0
3.06,546.0
3.0700000000000003,542.0
3.08,544.0
3.09,546.0
3.1,548.0
3.11,552.0
3.12,558.0
3.13,561.0
3.14,569.0
3.15,576.0
3.16,581.0
3.17,594.0
3.18,606.0
3.19,626.0
3.2,643.0
3.21,664.0
3.22,684.0
3.23,686.0
3.24,693.0
3.25,685.0
3.2600000000000002,660.0
3.27,625.0
3.2800000000000002,580.0
3.29,554.0
3.3000000000000003,529.0
3.31,519.0
3.3200000000000003,509.0
3.33,508.0
3.34,506.0
3.35,502.0
3.36,509.0
3.37,512.0
3.38,512.0
3.39,511.0
3.4,514.0
3.41,521.0
3.42,508.0
3.43,511.0
3.44,508.0
3.45,514.0
3.46,509.0
3.47,507.0
3.48,509.0
3.49,499.0
3.5,509.0
3.5100000000000002,508.0
3.52,518.0
3.5300000000000002,516.0
3.54,520.0
3.5500000000000003,522.0
3.56,521.0
3.5700000000000003,531.0
3.58,526.0
3.59,537.0
3.6,535.0
3.61,535.0
3.62,540.0
3.63,545.0
3.64,549.0
3.65,566.0
3.66,581.0
3.67,586.0
3.68,596.0
3.69,569.0
3.7,555.0
3.71,553.0
3.72,543.0
3.73,545.0
3.74,546.0
3.75,548.0
3.7600000000000002,535.0
3.77,475.0
3.7800000000000002,557.0
3.79,892.0
3.8000000000000003,1024.0
3.81,797.0
3.8200000000000003,510.0
3.83,532.0
3.84,514.0
3.85,546.0
3.86,535.0
3.87,535.0
3.88,550.0
3.89,549.0
3.9,554.0
3.91,559.0
3.92,561.0
3.93,567.0
3.94,581.0
3.95,580.0
3.96,600.0
3.97,609.0
3.98,625.0
3.99,646.0
4.0,662.0
4.01,679.0
4.0200000000000005,692.0
4.03,700.0
4.04,700.0
4.05,691.0
4.0600000000000005,656.0
4.07,618.0
4.08,588.0
4.09,558.0
4.1,544.0
4.11,538.0
4.12,533.0
4.13,533.0
4.14,532.0
4.15,536.0
4.16,535.0
4.17,535.0
4.18,542.0
4.19,541.0
4.2,537.0
4.21,542.0
4.22,543.0
4.23,540.0
4.24,542.0
4.25,535.0
4.26,535.0
4.2700000000000005,533.0
4.28,530.0
4.29,529.0
4.3,530.0
4.3100000000000005,529.0
4.32,529.0
4.33,526.0
4.34,532.0
4.3500000000000005,528.0
4.36,531.0
4.37,534.0
4.38,532.0
4.39,531.0
4.4,534.0
4.41,533.0
4.42,537.0
4.43,535.0
4.44,540.0
4.45,537.0
4.46,536.0
4.47,536.0
4.48,543.0
4.49,554.0
4.5,565.0
4.51,585.0
4.5200000000000005,598.0
4.53,560.0
4.54,554.0
4.55,554.0
4.5600000000000005,544.0
4.57,540.0
4.58,542.0
4.59,542.0
4.6000000000000005,542.0
4.61,517.0
4.62,469.0
4.63,604.0
4.64,1012.0
4.65,1024.0
4.66,727.0
4.67,531.0
4.68,514.0
4.69,531.0
4.7,525.0
4.71,523.0
4.72,530.0
4.73,532.0
4.74,536.0
4.75,541.0
4.76,548.0
4.7700000000000005,552.0
4.78,560.0
4.79,567.0
4.8,577.0
4.8100000000000005,588.0
4.82,601.0
4.83,616.0
4.84,636.0
4.8500000000000005,654.0
4.86,672.0
4.87,681.0
4.88,691.0
4.89,690.0
4.9,672.0
4.91,637.0
4.92,598.0
4.93,566.0
4.94,542.0
4.95,525.0
4.96,517.0
4.97,513.0
4.98,516.0
4.99,517.0
5.0,517.0
5.01,518.0
5.0200000000000005,516.0
5.03,518.0
5.04,519.0
5.05,524.0
5.0600000000000005,523.0
5.07,524.0
5.08,524.0
5.09,524.0
5.1000000000000005,525.0
5.11,524.0
5.12,525.0
5.13,525.0
5.14,523.0
5.15,523.0
5.16,526.0
5.17,526.0
5.18,525.0
5.19,524.0
5.2,525.0
5.21,525.0
5.22,525.0
5.23,525.0
5.24,525.0
5.25,530.0
5.26,528.0
5.2700000000000005,528.0
5.28,530.0
5.29,531.0
5.3,531.0
5.3100000000000005,533.0
5.32,529.0
5.33,530.0
5.34,533.0
5.3500000000000005,542.0
5.36,553.0
5.37,568.0
5.38,592.0
5.39,559.0
5.4,542.0
5.41,546.0
5.42,534.0
5.43,528.0
5.44,530.0
5.45,533.0
5.46,530.0
5.47,525.0
5.48,458.0
5.49,522.0
5.5,844.0
5.51,1024.0
5.5200000000000005,890.0
5.53,530.0
5.54,522.0
5.55,506.0
5.5600000000000005,526.0
5.57,516.0
5.58,523.0
5.59,526.0
5.6000000000000005,530.0
5.61,534.0
5.62,542.0
5.63,547.0
5.64,554.0
5.65,558.0
5.66,567.0
5.67,579.0
5.68,592.0
5.69,607.0
5.7,621.0
5.71,644.0
5.72,664.0
5.73,673.0
5.74,680.0
5.75,686.0
5.76,674.0
5.7700000000000005,648.0
5.78,607.0
5.79,576.0
5.8,547.0
5.8100000000000005,530.0
5.82,518.0
5.83,514.0
5.84,512.0
5.8500000000000005,512.0
5.86,516.0
5.87,514.0
5.88,516.0
5.89,517.0
5.9,516.0
5.91,520.0
5.92,518.0
5.93,517.0
5.94,522.0
5.95,519.0
5.96,516.0
5.97,517.0
5.98,514.0
5.99,513.0
6.0,512.0
6.01,516.0
6.0200000000000005,516.0
6.03,512.0
6.04,513.0
6.05,514.0
6.0600000000000005,509.0
6.07,513.0
6.08,514.0
6.09,517.0
6.1000000000000005,514.0
6.11,514.0
6.12,514.0
6.13,512.0
6.140000000000001,512.0
6.15,518.0
6.16,516.0
6.17,514.0
6.18,519.0
6.19,517.0
6.2,516.0
6.21,518.0
6.22,522.0
6.23,538.0
6.24,548.0
6.25,567.0
6.26,578.0
6.2700000000000005,541.0
6.28,530.0
6.29,524.0
6.3,524.0
6.3100000000000005,522.0
6.32,523.0
6.33,524.0
6.34,511.0
6.3500000000000005,454.0
6.36,549.0
6.37,906.0
6.38,1024.0
6.390000000000001,645.0
6.4,505.0
6.41,508.0
6.42,502.0
6.43,538.0
6.44,523.0
6.45,534.0
6.46,541.0
6.47,548.0
6.48,555.0
6.49,558.0
6.5,566.0
6.51,574.0
6.5200000000000005,580.0
6.53,592.0
6.54,600.0
6.55,608.0
6.5600000000000005,626.0
6.57,639.0
6.58,657.0
6.59,666.0
6.6000000000000005,680.0
6.61,688.0
6.62,686.0
6.63,680.0
6.640000000000001,655.0
6.65,624.0
6.66,586.0
6.67,565.0
6.68,552.0
6.69,541.0
6.7,532.0
6.71,534.0
6.72,534.0
6.73,534.0
6.74,534.0
6.75,543.0
6.76,541.0
6.7700000000000005,537.0
6.78,540.0
6.79,540.0
6.8,541.0
6.8100000000000005,535.0
6.82,534.0
6.83,532.0
6.84,525.0
6.8500000000000005,531.0
6.86,533.0
6.87,524.0
6.88,526.0
6.890000000000001,530.0
6.9,524.0
6.91,521.0
6.92,525.0
6.93,518.0
6.94,517.0
6.95,520.0
6.96,520.0
6.97,519.0
6.98,514.0
6.99,514.0
7.0,510.0
7.01,518.0
7.0200000000000005,518.0
7.03,511.0
7.04,518.0
7.05,520.0
7.0600000000000005,513.0
7.07,513.0
7.08,530.0
7.09,546.0
7.1000000000000005,556.0
7.11,568.0
7.12,538.0
7.13,520.0
7.140000000000001,523.0
7.15,516.0
7.16,520.0
7.17,523.0
7.18,525.0
7.19,516.0
7.2,463.0
7.21,549.0
7.22,880.0
7.23,1024.0
7.24,698.0
7.25,506.0
7.26,513.0
7.2700000000000005,505.0
7.28,541.0
7.29,526.0
7.3,535.0
7.3100000000000005,536.0
7.32,543.0
7.33,548.0
7.34,548.0
7.3500000000000005,554.0
7.36,559.0
7.37,568.0
7.38,577.0
7.390000000000001,588.0
7.4,601.0
7.41,613.0
7.42,632.0
7.43,648.0
7.44,664.0
7.45,674.0
7.46,681.0
7.47,681.0
7.48,670.0
7.49,643.0
7.5,613.0
7.51,581.0
7.5200000000000005,556.0
7.53,542.0
7.54,535.0
7.55,528.0
7.5600000000000005,530.0
7.57,530.0
7.58,531.0
7.59,531.0
7.6000000000000005,533.0
7.61,533.0
7.62,535.0
7.63,538.0
7.640000000000001,540.0
7.65,543.0
7.66,545.0
7.67,543.0
7.68,543.0
7.69,541.0
7.7,541.0
7.71,540.0
7.72,541.0
7.73,542.0
7.74,541.0
7.75,540.0
7.76,541.0
7.7700000000000005,541.0
7.78,542.0
7.79,541.0
7.8,535.0
7.8100000000000005,537.0
7.82,541.0
7.83,537.0
7.84,542.0
7.8500000000000005,543.0
7.86,542.0
7.87,544.0
7.88,546.0
7.890000000000001,543.0
7.9,562.0
7.91,578.0
7.92,581.0
7.930000000000001,589.0
7.94,559.0
7.95,547.0
7.96,550.0
7.97,538.0
7.98,541.0
7.99,543.0
8.0,542.0
8.01,525.0
8.02,475.0
8.03,597.0
8.040000000000001,944.0
8.05,1024.0
8.06,703.0
8.07,497.0
8.08,524.0
8.09,535.0
8.1,535.0
8.11,532.0
8.120000000000001,540.0
8.13,543.0
8.14,548.0
8.15,558.0
8.16,556.0
8.17,559.0
8.18,570.0
8.19,578.0
8.2,584.0
8.21,595.0
8.22,614.0
8.23,624.0
8.24,643.0
8.25,661.0
8.26,675.0
8.27,685.0
8.28,693.0
8.290000000000001,692.0
8.3,674.0
8.31,651.0
8.32,606.0
8.33,571.0
8.34,547.0
8.35,531.0
8.36,522.0
8.370000000000001,516.0
8.38,516.0
8.39,514.0
8.4,517.0
8.41,516.0
8.42,522.0
8.43,521.0
8.44,524.0
8.45,520.0
8.46,526.0
8.47,525.0
8.48,526.0
8.49,526.0
8.5,526.0
8.51,524.0
8.52,526.0
8.53,525.0
8.540000000000001,525.0
8.55,522.0
8.56,526.0
8.57,526.0
8.58,528.0
8.59,528.0
8.6,525.0
8.61,528.0
8.620000000000001,531.0
8.63,531.0
8.64,532.0
8.65,532.0
8.66,531.0
8.67,534.0
8.68,533.0
8.69,535.0
8.700000000000001,535.0
8.71,537.0
8.72,536.0
8.73,549.0
8.74,562.0
8.75,568.0
8.76,597.0
8.77,577.0
8.78,548.0
8.790000000000001,549.0
8.8,541.0
8.81,533.0
8.82,532.0
8.83,537.0
8.84,536.0
8.85,532.0
8.86,478.0
8.870000000000001,533.0
8.88,796.0
8.89,1024.0
8.9,902.0
8.91,489.0
8.92,517.0
8.93,522.0
8.94,532.0
8.950000000000001,522.0
8.96,530.0
8.97,534.0
8.98,540.0
8.99,546.0
9.0,548.0
9.01,554.0
9.02,560.0
9.03,567.0
9.040000000000001,574.0
9.05,586.0
9.06,597.0
9.07,612.0
9.08,627.0
9.09,646.0
9.1,664.0
9.11,675.0
9.120000000000001,685.0
9.13,689.0
9.14,684.0
9.15,654.0
9.16,621.0
9.17,588.0
9.18,554.0
9.19,537.0
9.200000000000001,528.0
9.21,521.0
9.22,514.0
9.23,522.0
9.24,516.0
9.25,535.0
9.26,526.0
9.27,534.0
9.28,533.0
9.290000000000001,533.0
9.3,536.0
9.31,544.0
9.32,541.0
9.33,542.0
9.34,544.0
9.35,540.0
9.36,537.0
9.370000000000001,542.0
9.38,545.0
9.39,540.0
9.4,537.0
9.41,541.0
9.42,552.0
9.43,545.0
9.44,546.0
9.450000000000001,546.0
9.46,544.0
9.47,549.0
9.48,543.0
9.49,555.0
9.5,549.0
9.51,552.0
9.52,546.0
9.53,550.0
9.540000000000001,552.0
9.55,555.0
9.56,566.0
9.57,577.0
9.58,591.0
9.59,600.0
9.6,571.0
9.61,560.0
9.620000000000001,554.0
9.63,545.0
9.64,543.0
9.65,545.0
9.66,546.0
9.67,552.0
9.68,504.0
9.69,501.0
9.700000000000001,710.0
9.71,1024.0
9.72,1024.0
9.73,549.0
9.74,531.0
9.75,520.0
9.76,542.0
9.77,525.0
9.78,537.0
9.790000000000001,537.0
9.8,544.0
9.81,550.0
9.82,553.0
9.83,554.0
9.84,565.0
9.85,569.0
9.86,581.0
9.870000000000001,589.0
9.88,555.0
9.89,508.0
9.9,590.0
9.91,673.0
9.92,662.0
9.93,690.0
9.94,804.0
9.950000000000001,739.0
9.96,716.0
9.97,693.0
9.98,648.0
9.99,610.0
