Time,ADC
0.0,543.0
0.01,542.0
0.02,545.0
0.03,546.0
0.04,543.0
0.05,546.0
0.06,546.0
0.07,544.0
0.08,559.0
0.09,577.0
0.1,583.0
0.11,601.0
0.12,572.0
0.13,549.0
0.14,553.0
0.15,542.0
0.16,541.0
0.17,543.0
0.18,545.0
0.19,542.0
0.2,487.0
0.21,531.0
0.22,795.0
0.23,1024.0
0.24,871.0
0.25,468.0
0.26,524.0
0.27,501.0
0.28,545.0
0.29,531.0
0.3,535.0
0.31,543.0
0.32,544.0
0.33,552.0
0.34,548.0
0.35000000000000003,556.0
0.36,558.0
0.37,569.0
0.38,574.0
0.39,577.0
0.4,594.0
0.41000000000000003,606.0
0.42,621.0
0.43,640.0
0.44,655.0
0.45,663.0
0.46,670.0
0.47000000000000003,674.0
0.48,663.0
0.49,637.0
0.5,606.0
0.51,576.0
0.52,552.0
0.53,536.0
0.54,528.0
0.55,525.0
0.56,523.0
0.5700000000000001,524.0
0.58,530.0
0.59,529.0
0.6,531.0
0.61,532.0
0.62,535.0
0.63,536.0
0.64,540.0
0.65,541.0
0.66,541.0
0.67,543.0
0.68,540.0
0.6900000000000001,542.0
0.7000000000000001,541.0
0.71,541.0
0.72,543.0
0.73,544.0
0.74,543.0
0.75,545.0
0.76,546.0
0.77,546.0
0.78,545.0
0.79,550.0
0.8,548.0
0.81,545.0
0.8200000000000001,545.0
0.8300000000000001,544.0
0.84,544.0
0.85,542.0
0.86,542.0
0.87,541.0
0.88,543.0
0.89,543.0
0.9,556.0
0.91,571.0
0.92,580.0
0.93,596.0
0.9400000000000001,561.0
0.9500000000000001,542.0
0.96,546.0
0.97,534.0
0.98,534.0
0.99,535.0
1.0,535.0
1.01,528.0
1.02,478.0
1.03,548.0
1.04,833.0
1.05,1024.0
1.06,848.0
1.07,474.0
1.08,525.0
1.09,517.0
1.1,536.0
1.11,525.0
1.12,532.0
1.1300000000000001,537.0
1.1400000000000001,541.0
1.1500000000000001,547.0
1.16,550.0
1.17,559.0
1.18,562.0
1.19,569.0
1.2,579.0
1.21,588.0
1.22,604.0
1.23,614.0
1.24,628.0
1.25,651.0
1.26,667.0
1.27,681.0
1.28,689.0
1.29,686.0
1.3,679.0
1.31,648.0
1.32,617.0
1.33,580.0
1.34,555.0
1.35,536.0
1.36,533.0
1.37,523.0
1.3800000000000001,524.0
1.3900000000000001,525.0
1.4000000000000001,526.0
1.41,525.0
1.42,528.0
1.43,531.0
1.44,528.0
1.45,532.0
1.46,534.0
1.47,532.0
1.48,534.0
1.49,536.0
1.5,537.0
1.51,535.0
1.52,530.0
1.53,533.0
1.54,534.0
1.55,532.0
1.56,530.0
1.57,532.0
1.58,528.0
1.59,532.0
1.6,531.0
1.61,532.0
1.62,532.0
1.6300000000000001,532.0
1.6400000000000001,535.0
1.6500000000000001,535.0
1.6600000000000001,535.0
1.67,535.0
1.68,535.0
1.69,536.0
1.7,537.0
1.71,537.0
1.72,537.0
1.73,541.0
1.74,542.0
1.75,540.0
1.76,546.0
1.77,555.0
1.78,566.0
1.79,572.0
1.8,601.0
1.81,577.0
1.82,554.0
1.83,546.0
1.84,545.0
1.85,532.0
1.86,534.0
1.87,534.0
1.8800000000000001,533.0
1.8900000000000001,531.0
1.9000000000000001,475.0
1.9100000000000001,553.0
1.92,837.0
1.93,1024.0
1.94,806.0
1.95,490.0
1.96,516.0
1.97,522.0
1.98,525.0
1.99,516.0
2.0,523.0
2.0100000000000002,528.0
2.02,534.0
2.0300000000000002,538.0
2.04,544.0
2.05,552.0
2.06,554.0
2.07,566.0
2.08,572.0
2.09,580.0
2.1,593.0
2.11,607.0
2.12,626.0
2.13,641.0
2.14,661.0
2.15,670.0
2.16,680.0
2.17,686.0
2.18,677.0
2.19,652.0
2.2,618.0
2.21,582.0
2.22,555.0
2.23,537.0
2.24,522.0
2.25,519.0
2.2600000000000002,518.0
2.27,518.0
2.2800000000000002,520.0
2.29,524.0
2.3000000000000003,524.0
2.31,526.0
2.32,528.0
2.33,528.0
2.34,528.0
2.35,530.0
2.36,532.0
2.37,530.0
2.38,530.0
2.39,532.0
2.4,532.0
2.41,531.0
2.42,532.0
2.43,531.0
2.44,531.0
2.45,532.0
2.46,531.0
2.47,532.0
2.48,531.0
2.49,531.0
2.5,528.0
2.5100000000000002,531.0
2.52,531.0
2.5300000000000002,533.0
2.54,534.0
2.5500000000000003,535.0
2.56,534.0
2.57,536.0
2.58,535.0
2.59,540.0
2.6,537.0
2.61,536.0
2.62,538.0
2.63,541.0
2.64,541.0
2.65,543.0
2.66,542.0
2.67,544.0
2.68,544.0
2.69,544.0
2.7,553.0
2.71,562.0
2.72,576.0
2.73,595.0
2.74,594.0
2.75,554.0
2.7600000000000002,555.0
2.77,548.0
2.7800000000000002,540.0
2.79,537.0
2.8000000000000003,541.0
2.81,536.0
2.82,538.0
2.83,487.0
2.84,507.0
2.85,754.0
2.86,1024.0
2.87,915.0
2.88,507.0
2.89,543.0
2.9,507.0
2.91,540.0
2.92,525.0
2.93,534.0
2.94,534.0
2.95,538.0
2.96,544.0
2.97,548.0
2.98,553.0
2.99,559.0
3.0,566.0
3.0100000000000002,576.0
3.02,585.0
3.0300000000000002,595.0
3.04,609.0
3.0500000000000003,621.0
3.06,639.0
3.0700000000000003,656.0
3.08,670.0
3.09,676.0
3.1,681.0
3.11,678.0
3.12,662.0
3.13,632.0
3.14,598.0
3.15,567.0
3.16,547.0
3.17,534.0
3.18,528.0
3.19,526.0
3.2,526.0
3.21,526.0
3.22,525.0
3.23,528.0
3.24,526.0
3.25,529.0
3.2600000000000002,535.0
3.27,533.0
3.2800000000000002,533.0
3.29,531.0
3.3000000000000003,530.0
3.31,526.0
3.3200000000000003,524.0
3.33,528.0
3.34,523.0
3.35,525.0
3.36,528.0
3.37,521.0
3.38,519.0
3.39,522.0
3.4,521.0
3.41,525.0
3.42,522.0
3.43,516.0
3.44,520.0
3.45,518.0
3.46,518.0
3.47,516.0
3.48,519.0
3.49,523.0
3.5,521.0
3.5100000000000002,512.0
3.52,517.0
3.5300000000000002,517.0
3.54,514.0
3.5500000000000003,519.0
3.56,520.0
3.5700000000000003,518.0
3.58,516.0
3.59,518.0
3.6,517.0
3.61,518.0
3.62,521.0
3.63,528.0
3.64,554.0
3.65,553.0
3.66,560.0
3.67,547.0
3.68,520.0
3.69,523.0
3.7,518.0
3.71,516.0
3.72,518.0
3.73,521.0
3.74,507.0
3.75,457.0
3.7600000000000002,545.0
3.77,881.0
3.7800000000000002,1024.0
3.79,595.0
3.8000000000000003,478.0
3.81,494.0
3.8200000000000003,494.0
3.83,531.0
3.84,517.0
3.85,526.0
3.86,528.0
3.87,535.0
3.88,541.0
3.89,545.0
3.9,552.0
3.91,556.0
3.92,565.0
3.93,577.0
3.94,586.0
3.95,598.0
3.96,609.0
3.97,627.0
3.98,644.0
3.99,654.0
4.0,667.0
4.01,674.0
4.0200000000000005,676.0
4.03,667.0
4.04,643.0
4.05,616.0
4.0600000000000005,586.0
4.07,562.0
4.08,547.0
4.09,537.0
4.1,537.0
4.11,533.0
4.12,534.0
4.13,536.0
4.14,535.0
4.15,541.0
4.16,536.0
4.17,533.0
4.18,536.0
4.19,541.0
4.2,537.0
4.21,540.0
4.22,542.0
4.23,540.0
4.24,537.0
4.25,537.0
4.26,541.0
4.2700000000000005,536.0
4.28,541.0
4.29,542.0
4.3,541.0
4.3100000000000005,541.0
4.32,544.0
4.33,542.0
4.34,535.0
4.3500000000000005,513.0
4.36,513.0
4.37,505.0
4.38,505.0
4.39,514.0
4.4,522.0
4.41,513.0
4.42,502.0
4.43,512.0
4.44,513.0
4.45,517.0
4.46,521.0
4.47,516.0
4.48,512.0
4.49,533.0
4.5,553.0
4.51,555.0
4.5200000000000005,554.0
4.53,522.0
4.54,519.0
4.55,507.0
4.5600000000000005,497.0
4.57,506.0
4.58,511.0
4.59,506.0
4.6000000000000005,461.0
4.61,487.0
4.62,687.0
4.63,1024.0
4.64,992.0
4.65,483.0
4.66,508.0
4.67,499.0
4.68,531.0
4.69,511.0
4.7,514.0
4.71,520.0
4.72,525.0
4.73,531.0
4.74,533.0
4.75,537.0
4.76,544.0
4.7700000000000005,550.0
4.78,556.0
4.79,572.0
4.8,579.0
4.8100000000000005,593.0
4.82,612.0
4.83,630.0
4.84,650.0
4.8500000000000005,661.0
4.86,673.0
4.87,674.0
4.88,675.0
4.89,656.0
4.9,622.0
4.91,588.0
4.92,556.0
4.93,536.0
4.94,524.0
4.95,518.0
4.96,516.0
4.97,513.0
4.98,516.0
4.99,518.0
5.0,518.0
5.01,521.0
5.0200000000000005,522.0
5.03,524.0
5.04,526.0
5.05,526.0
5.0600000000000005,531.0
5.07,531.0
5.08,531.0
5.09,528.0
5.1000000000000005,530.0
5.11,530.0
5.12,530.0
5.13,530.0
5.14,531.0
5.15,532.0
5.16,534.0
5.17,533.0
5.18,533.0
5.19,530.0
5.2,533.0
5.21,533.0
5.22,533.0
5.23,531.0
5.24,526.0
5.25,533.0
5.26,535.0
5.2700000000000005,533.0
5.28,535.0
5.29,533.0
5.3,535.0
5.3100000000000005,536.0
5.32,560.0
5.33,564.0
5.34,572.0
5.3500000000000005,579.0
5.36,543.0
5.37,535.0
5.38,532.0
5.39,524.0
5.4,529.0
5.41,531.0
5.42,530.0
5.43,499.0
5.44,469.0
5.45,619.0
5.46,1015.0
5.47,1024.0
5.48,577.0
5.49,535.0
5.5,496.0
5.51,521.0
5.5200000000000005,524.0
5.53,521.0
5.54,525.0
5.55,534.0
5.5600000000000005,537.0
5.57,543.0
5.58,550.0
5.59,555.0
5.6000000000000005,562.0
5.61,572.0
5.62,578.0
5.63,588.0
5.64,605.0
5.65,619.0
5.66,641.0
5.67,655.0
5.68,670.0
5.69,684.0
5.7,684.0
5.71,680.0
5.72,673.0
5.73,627.0
5.74,593.0
5.75,567.0
5.76,537.0
5.7700000000000005,526.0
5.78,513.0
5.79,523.0
5.8,514.0
5.8100000000000005,521.0
5.82,516.0
5.83,518.0
5.84,518.0
5.8500000000000005,528.0
5.86,526.0
5.87,526.0
5.88,525.0
5.89,531.0
5.9,535.0
5.91,535.0
5.92,535.0
5.93,535.0
5.94,537.0
5.95,540.0
5.96,542.0
5.97,536.0
5.98,545.0
5.99,554.0
6.0,528.0
6.01,525.0
6.0200000000000005,573.0
6.03,555.0
6.04,550.0
6.05,566.0
6.0600000000000005,581.0
6.07,585.0
6.08,579.0
6.09,577.0
6.1000000000000005,586.0
6.11,557.0
6.12,549.0
6.13,535.0
6.140000000000001,526.0
6.15,521.0
6.16,516.0
6.17,512.0
6.18,525.0
6.19,520.0
6.2,499.0
6.21,504.0
6.22,505.0
6.23,505.0
6.24,488.0
6.25,532.0
6.26,502.0
6.2700000000000005,534.0
6.28,543.0
6.29,552.0
6.3,558.0
6.3100000000000005,524.0
6.32,508.0
6.33,502.0
6.34,509.0
6.3500000000000005,516.0
6.36,523.0
6.37,518.0
6.38,512.0
6.390000000000001,457.0
6.4,507.0
6.41,856.0
6.42,1024.0
6.43,758.0
6.44,490.0
6.45,508.0
6.46,466.0
6.47,496.0
6.48,465.0
6.49,502.0
6.5,498.0
6.51,508.0
6.5200000000000005,517.0
6.53,524.0
6.54,533.0
6.55,537.0
6.5600000000000005,554.0
6.57,561.0
6.58,577.0
6.59,588.0
6.6000000000000005,586.0
6.61,571.0
6.62,642.0
6.63,688.0
6.640000000000001,672.0
6.65,684.0
6.66,692.0
6.67,696.0
6.68,674.0
6.69,640.0
6.7,613.0
6.71,584.0
6.72,561.0
6.73,553.0
6.74,555.0
6.75,536.0
6.76,535.0
6.7700000000000005,535.0
6.78,534.0
6.79,540.0
6.8,542.0
6.8100000000000005,541.0
6.82,541.0
6.83,533.0
6.84,553.0
6.8500000000000005,535.0
6.86,537.0
6.87,542.0
6.88,555.0
6.890000000000001,552.0
6.9,555.0
6.91,553.0
6.92,543.0
6.93,550.0
6.94,548.0
6.95,559.0
6.96,567.0
6.97,558.0
6.98,568.0
6.99,566.0
7.0,560.0
7.01,566.0
7.0200000000000005,568.0
7.03,567.0
7.04,569.0
7.05,574.0
7.0600000000000005,568.0
7.07,569.0
7.08,576.0
7.09,570.0
7.1000000000000005,574.0
7.11,576.0
7.12,572.0
7.13,573.0
7.140000000000001,574.0
7.15,578.0
7.16,572.0
7.17,572.0
7.18,583.0
7.19,601.0
7.2,607.0
7.21,616.0
7.22,597.0
7.23,572.0
7.24,569.0
7.25,555.0
7.26,552.0
7.2700000000000005,561.0
7.28,556.0
7.29,542.0
7.3,486.0
7.3100000000000005,585.0
7.32,949.0
7.33,1024.0
7.34,841.0
7.3500000000000005,536.0
7.36,532.0
7.37,532.0
7.38,533.0
7.390000000000001,528.0
7.4,534.0
7.41,540.0
7.42,525.0
7.43,542.0
7.44,549.0
7.45,554.0
7.46,567.0
7.47,578.0
7.48,583.0
7.49,595.0
7.5,608.0
7.51,618.0
7.5200000000000005,642.0
7.53,662.0
7.54,665.0
7.55,680.0
7.5600000000000005,698.0
7.57,675.0
7.58,668.0
7.59,655.0
7.6000000000000005,605.0
7.61,570.0
7.62,546.0
7.63,524.0
7.640000000000001,516.0
7.65,513.0
7.66,511.0
7.67,507.0
7.68,509.0
7.69,513.0
7.7,513.0
7.71,512.0
7.72,516.0
7.73,520.0
7.74,516.0
7.75,514.0
7.76,520.0
7.7700000000000005,524.0
7.78,522.0
7.79,516.0
7.8,518.0
7.8100000000000005,513.0
7.82,508.0
7.83,502.0
7.84,502.0
7.8500000000000005,498.0
7.86,499.0
7.87,499.0
7.88,496.0
7.890000000000001,497.0
7.9,494.0
7.91,497.0
7.92,496.0
7.930000000000001,497.0
7.94,494.0
7.95,498.0
7.96,494.0
7.97,493.0
7.98,498.0
7.99,494.0
8.0,492.0
8.01,494.0
8.02,493.0
8.03,513.0
8.040000000000001,524.0
8.05,526.0
8.06,525.0
8.07,495.0
8.08,492.0
8.09,488.0
8.1,480.0
8.11,482.0
8.120000000000001,481.0
8.13,483.0
8.14,438.0
8.15,416.0
8.16,607.0
8.17,1017.0
8.18,1024.0
8.19,517.0
8.2,486.0
8.21,432.0
8.22,469.0
8.23,463.0
8.24,460.0
8.25,475.0
8.26,474.0
8.27,480.0
8.28,482.0
8.290000000000001,496.0
8.3,496.0
8.31,505.0
8.32,512.0
8.33,528.0
8.34,531.0
8.35,554.0
8.36,562.0
8.370000000000001,597.0
8.38,604.0
8.39,619.0
8.4,624.0
8.41,648.0
8.42,634.0
8.43,617.0
8.44,574.0
8.45,540.0
8.46,505.0
8.47,488.0
8.48,470.0
8.49,470.0
8.5,458.0
8.51,462.0
8.52,458.0
8.53,464.0
8.540000000000001,459.0
8.55,469.0
8.56,469.0
8.57,473.0
8.58,474.0
8.59,478.0
8.6,483.0
8.61,482.0
8.620000000000001,486.0
8.63,483.0
8.64,486.0
8.65,484.0
8.66,484.0
8.67,485.0
8.68,487.0
8.69,487.0
8.700000000000001,489.0
8.71,489.0
8.72,488.0
8.73,489.0
8.74,484.0
8.75,492.0
8.76,488.0
8.77,489.0
8.78,496.0
8.790000000000001,489.0
8.8,493.0
8.81,495.0
8.82,494.0
8.83,495.0
8.84,493.0
8.85,494.0
8.86,501.0
8.870000000000001,498.0
8.88,499.0
8.89,502.0
8.9,504.0
8.91,500.0
8.92,507.0
8.93,511.0
8.94,512.0
8.950000000000001,513.0
8.96,514.0
8.97,512.0
8.98,513.0
8.99,530.0
9.0,535.0
9.01,545.0
9.02,576.0
9.03,559.0
9.040000000000001,531.0
9.05,528.0
9.06,523.0
9.07,513.0
9.08,516.0
9.09,519.0
9.1,517.0
9.11,512.0
9.120000000000001,445.0
9.13,507.0
9.14,828.0
9.15,1024.0
9.16,944.0
9.17,521.0
9.18,512.0
9.19,499.0
9.200000000000001,511.0
9.21,496.0
9.22,506.0
9.23,513.0
9.24,516.0
9.25,522.0
9.26,525.0
9.27,534.0
9.28,536.0
9.290000000000001,545.0
9.3,556.0
9.31,565.0
9.32,576.0
9.33,593.0
9.34,609.0
9.35,629.0
9.36,645.0
9.370000000000001,662.0
9.38,672.0
9.39,676.0
9.4,670.0
9.41,652.0
9.42,617.0
9.43,579.0
9.44,547.0
9.450000000000001,526.0
9.46,512.0
9.47,508.0
9.48,505.0
9.49,506.0
9.5,504.0
9.51,508.0
9.52,508.0
9.53,514.0
9.540000000000001,513.0
9.55,516.0
9.56,518.0
9.57,519.0
9.58,517.0
9.59,522.0
9.6,521.0
9.61,520.0
9.620000000000001,521.0
9.63,522.0
9.64,520.0
9.65,522.0
9.66,521.0
9.67,521.0
9.68,525.0
9.69,522.0
9.700000000000001,522.0
9.71,525.0
9.72,522.0
9.73,525.0
9.74,524.0
9.75,526.0
9.76,524.0
9.77,528.0
9.78,528.0
9.790000000000001,525.0
9.8,528.0
9.81,530.0
9.82,528.0
9.83,531.0
9.84,534.0
9.85,531.0
9.86,532.0
9.870000000000001,533.0
9.88,533.0
9.89,555.0
9.9,560.0
9.91,573.0
9.92,581.0
9.93,542.0
9.94,537.0
9.950000000000001,535.0
9.96,529.0
9.97,535.0
9.98,533.0
9.99,535.0
