Time,ADC
0.0,270.0
0.01,267.0
0.02,267.0
0.03,270.0
0.04,271.0
0.05,274.0
0.06,273.0
0.07,273.0
0.08,274.0
0.09,291.0
0.1,302.0
0.11,320.0
0.12,313.0
0.13,284.0
0.14,283.0
0.15,276.0
0.16,265.0
0.17,267.0
0.18,267.0
0.19,270.0
0.2,257.0
0.21,216.0
0.22,306.0
0.23,582.0
0.24,836.0
0.25,440.0
0.26,237.0
0.27,249.0
0.28,243.0
0.29,272.0
0.3,253.0
0.31,264.0
0.32,267.0
0.33,267.0
0.34,273.0
0.35000000000000003,277.0
0.36,281.0
0.37,286.0
0.38,291.0
0.39,298.0
0.4,306.0
0.41000000000000003,317.0
0.42,322.0
0.43,331.0
0.44,345.0
0.45,355.0
0.46,367.0
0.47000000000000003,374.0
0.48,375.0
0.49,375.0
0.5,363.0
0.51,340.0
0.52,316.0
0.53,289.0
0.54,262.0
0.55,254.0
0.56,247.0
0.5700000000000001,241.0
0.58,236.0
0.59,236.0
0.6,235.0
0.61,235.0
0.62,238.0
0.63,246.0
0.64,248.0
0.65,245.0
0.66,248.0
0.67,254.0
0.68,253.0
0.6900000000000001,253.0
0.7000000000000001,254.0
0.71,255.0
0.72,254.0
0.73,249.0
0.74,253.0
0.75,253.0
0.76,248.0
0.77,249.0
0.78,249.0
0.79,249.0
0.8,253.0
0.81,249.0
0.8200000000000001,253.0
0.8300000000000001,253.0
0.84,255.0
0.85,253.0
0.86,252.0
0.87,252.0
0.88,254.0
0.89,256.0
0.9,255.0
0.91,256.0
0.92,259.0
0.93,256.0
0.9400000000000001,261.0
0.9500000000000001,258.0
0.96,262.0
0.97,260.0
0.98,262.0
0.99,264.0
1.0,282.0
1.01,290.0
1.02,307.0
1.03,298.0
1.04,277.0
1.05,270.0
1.06,264.0
1.07,256.0
1.08,257.0
1.09,259.0
1.1,258.0
1.11,254.0
1.12,209.0
1.1300000000000001,257.0
1.1400000000000001,497.0
1.1500000000000001,765.0
1.16,528.0
1.17,189.0
1.18,245.0
1.19,220.0
1.2,266.0
1.21,255.0
1.22,258.0
1.23,267.0
1.24,268.0
1.25,276.0
1.26,278.0
1.27,285.0
1.28,292.0
1.29,297.0
1.3,305.0
1.31,312.0
1.32,320.0
1.33,329.0
1.34,340.0
1.35,353.0
1.36,367.0
1.37,377.0
1.3800000000000001,387.0
1.3900000000000001,392.0
1.4000000000000001,392.0
1.41,379.0
1.42,360.0
1.43,331.0
1.44,306.0
1.45,288.0
1.46,270.0
1.47,259.0
1.48,257.0
1.49,257.0
1.5,255.0
1.51,254.0
1.52,258.0
1.53,257.0
1.54,259.0
1.55,264.0
1.56,266.0
1.57,266.0
1.58,272.0
1.59,272.0
1.6,271.0
1.61,267.0
1.62,273.0
1.6300000000000001,268.0
1.6400000000000001,267.0
1.6500000000000001,267.0
1.6600000000000001,268.0
1.67,266.0
1.68,266.0
1.69,265.0
1.7,267.0
1.71,267.0
1.72,265.0
1.73,267.0
1.74,266.0
1.75,264.0
1.76,266.0
1.77,268.0
1.78,266.0
1.79,266.0
1.8,267.0
1.81,267.0
1.82,267.0
1.83,268.0
1.84,270.0
1.85,273.0
1.86,276.0
1.87,276.0
1.8800000000000001,276.0
1.8900000000000001,276.0
1.9000000000000001,274.0
1.9100000000000001,276.0
1.92,283.0
1.93,298.0
1.94,310.0
1.95,316.0
1.96,288.0
1.97,273.0
1.98,274.0
1.99,267.0
2.0,262.0
2.0100000000000002,262.0
2.02,264.0
2.0300000000000002,264.0
2.04,226.0
2.05,229.0
2.06,415.0
2.07,757.0
2.08,739.0
2.09,269.0
2.1,268.0
2.11,228.0
2.12,267.0
2.13,257.0
2.14,256.0
2.15,265.0
2.16,267.0
2.17,271.0
2.18,274.0
2.19,282.0
2.2,284.0
2.21,292.0
2.22,301.0
2.23,306.0
2.24,313.0
2.25,322.0
2.2600000000000002,331.0
2.27,344.0
2.2800000000000002,356.0
2.29,369.0
2.3000000000000003,377.0
2.31,385.0
2.32,388.0
2.33,381.0
2.34,360.0
2.35,334.0
2.36,306.0
2.37,278.0
2.38,259.0
2.39,252.0
2.4,244.0
2.41,238.0
2.42,240.0
2.43,240.0
2.44,242.0
2.45,243.0
2.46,244.0
2.47,246.0
2.48,247.0
2.49,253.0
2.5,255.0
2.5100000000000002,261.0
2.52,257.0
2.5300000000000002,261.0
2.54,259.0
2.5500000000000003,259.0
2.56,256.0
2.57,256.0
2.58,259.0
2.59,256.0
2.6,256.0
2.61,254.0
2.62,256.0
2.63,256.0
2.64,254.0
2.65,257.0
2.66,257.0
2.67,260.0
2.68,257.0
2.69,261.0
2.7,259.0
2.71,259.0
2.72,259.0
2.73,261.0
2.74,257.0
2.75,264.0
2.7600000000000002,264.0
2.77,259.0
2.7800000000000002,267.0
2.79,266.0
2.8000000000000003,266.0
2.81,268.0
2.82,268.0
2.83,272.0
2.84,272.0
2.85,273.0
2.86,289.0
2.87,296.0
2.88,317.0
2.89,300.0
2.9,273.0
2.91,278.0
2.92,269.0
2.93,266.0
2.94,265.0
2.95,265.0
2.96,264.0
2.97,241.0
2.98,209.0
2.99,320.0
3.0,624.0
3.0100000000000002,782.0
3.02,320.0
3.0300000000000002,225.0
3.04,229.0
3.0500000000000003,243.0
3.06,273.0
3.0700000000000003,257.0
3.08,273.0
3.09,277.0
3.1,277.0
3.11,281.0
3.12,282.0
3.13,291.0
3.14,292.0
3.15,293.0
3.16,309.0
3.17,315.0
3.18,319.0
3.19,330.0
3.2,339.0
3.21,354.0
3.22,358.0
3.23,372.0
3.24,379.0
3.25,378.0
3.2600000000000002,375.0
3.27,361.0
3.2800000000000002,338.0
3.29,313.0
3.3000000000000003,288.0
3.31,267.0
3.3200000000000003,255.0
3.33,247.0
3.34,244.0
3.35,244.0
3.36,240.0
3.37,243.0
3.38,246.0
3.39,246.0
3.4,246.0
3.41,248.0
3.42,248.0
3.43,249.0
3.44,253.0
3.45,254.0
3.46,252.0
3.47,255.0
3.48,255.0
3.49,254.0
3.5,248.0
3.5100000000000002,252.0
3.52,254.0
3.5300000000000002,255.0
3.54,256.0
3.5500000000000003,255.0
3.56,256.0
3.5700000000000003,256.0
3.58,257.0
3.59,259.0
3.6,259.0
3.61,259.0
3.62,264.0
3.63,259.0
3.64,258.0
3.65,262.0
3.66,264.0
3.67,262.0
3.68,268.0
3.69,266.0
3.7,267.0
3.71,269.0
3.72,270.0
3.73,284.0
3.74,294.0
3.75,312.0
3.7600000000000002,306.0
3.77,283.0
3.7800000000000002,276.0
3.79,277.0
3.8000000000000003,266.0
3.81,264.0
3.8200000000000003,266.0
3.83,267.0
3.84,265.0
3.85,214.0
3.86,257.0
3.87,493.0
3.88,782.0
3.89,594.0
3.9,212.0
3.91,264.0
3.92,237.0
3.93,281.0
3.94,268.0
3.95,268.0
3.96,278.0
3.97,278.0
3.98,283.0
3.99,290.0
4.0,291.0
4.01,298.0
4.0200000000000005,301.0
4.03,307.0
4.04,315.0
4.05,322.0
4.0600000000000005,331.0
4.07,343.0
4.08,356.0
4.09,369.0
4.1,381.0
4.11,388.0
4.12,391.0
4.13,392.0
4.14,381.0
4.15,360.0
4.16,334.0
4.17,307.0
4.18,283.0
4.19,264.0
4.2,255.0
4.21,247.0
4.22,244.0
4.23,246.0
4.24,243.0
4.25,238.0
4.26,246.0
4.2700000000000005,248.0
4.28,249.0
4.29,254.0
4.3,253.0
4.3100000000000005,256.0
4.32,258.0
4.33,259.0
4.34,258.0
4.3500000000000005,255.0
4.36,257.0
4.37,257.0
4.38,256.0
4.39,256.0
4.4,254.0
4.41,255.0
4.42,255.0
4.43,254.0
4.44,257.0
4.45,256.0
4.46,258.0
4.47,259.0
4.48,262.0
4.49,262.0
4.5,262.0
4.51,261.0
4.5200000000000005,262.0
4.53,266.0
4.54,266.0
4.55,265.0
4.5600000000000005,267.0
4.57,266.0
4.58,266.0
4.59,268.0
4.6000000000000005,267.0
4.61,272.0
4.62,274.0
4.63,273.0
4.64,274.0
4.65,273.0
4.66,273.0
4.67,277.0
4.68,290.0
4.69,303.0
4.7,320.0
4.71,307.0
4.72,284.0
4.73,281.0
4.74,277.0
4.75,268.0
4.76,267.0
4.7700000000000005,270.0
4.78,270.0
4.79,258.0
4.8,210.0
4.8100000000000005,296.0
4.82,571.0
4.83,856.0
4.84,489.0
4.8500000000000005,261.0
4.86,256.0
4.87,247.0
4.88,274.0
4.89,255.0
4.9,266.0
4.91,270.0
4.92,274.0
4.93,277.0
4.94,282.0
4.95,289.0
4.96,293.0
4.97,300.0
4.98,307.0
4.99,315.0
5.0,321.0
5.01,336.0
5.0200000000000005,345.0
5.03,358.0
5.04,375.0
5.05,382.0
5.0600000000000005,390.0
5.07,396.0
5.08,396.0
5.09,384.0
5.1000000000000005,360.0
5.11,331.0
5.12,306.0
5.13,282.0
5.14,267.0
5.15,261.0
5.16,255.0
5.17,254.0
5.18,252.0
5.19,252.0
5.2,252.0
5.21,257.0
5.22,262.0
5.23,260.0
5.24,266.0
5.25,268.0
5.26,268.0
5.2700000000000005,270.0
5.28,271.0
5.29,272.0
5.3,269.0
5.3100000000000005,271.0
5.32,273.0
5.33,272.0
5.34,273.0
5.3500000000000005,273.0
5.36,272.0
5.37,267.0
5.38,268.0
5.39,269.0
5.4,271.0
5.41,272.0
5.42,270.0
5.43,273.0
5.44,274.0
5.45,277.0
5.46,278.0
5.47,273.0
5.48,265.0
5.49,265.0
5.5,265.0
5.51,272.0
5.5200000000000005,274.0
5.53,277.0
5.54,272.0
5.55,272.0
5.5600000000000005,270.0
5.57,272.0
5.58,276.0
5.59,276.0
5.6000000000000005,274.0
5.61,276.0
5.62,277.0
5.63,274.0
5.64,273.0
5.65,289.0
5.66,298.0
5.67,313.0
5.68,316.0
5.69,289.0
5.7,280.0
5.71,281.0
5.72,271.0
5.73,270.0
5.74,273.0
5.75,274.0
5.76,266.0
5.7700000000000005,219.0
5.78,268.0
5.79,504.0
5.8,783.0
5.8100000000000005,541.0
5.82,206.0
5.83,265.0
5.84,234.0
5.8500000000000005,282.0
5.86,270.0
5.87,274.0
5.88,282.0
5.89,284.0
5.9,288.0
5.91,290.0
5.92,298.0
5.93,302.0
5.94,301.0
5.95,315.0
5.96,321.0
5.97,329.0
5.98,336.0
5.99,343.0
6.0,357.0
6.01,374.0
6.0200000000000005,375.0
6.03,385.0
6.04,392.0
6.05,387.0
6.0600000000000005,386.0
6.07,366.0
6.08,340.0
6.09,313.0
6.1000000000000005,292.0
6.11,279.0
6.12,266.0
6.13,266.0
6.140000000000001,262.0
6.15,256.0
6.16,255.0
6.17,259.0
6.18,264.0
6.19,262.0
6.2,264.0
6.21,264.0
6.22,267.0
6.23,268.0
6.24,265.0
6.25,268.0
6.26,272.0
6.2700000000000005,270.0
6.28,267.0
6.29,270.0
6.3,268.0
6.3100000000000005,272.0
6.32,267.0
6.33,266.0
6.34,267.0
6.3500000000000005,272.0
6.36,267.0
6.37,266.0
6.38,268.0
6.390000000000001,266.0
6.4,270.0
6.41,268.0
6.42,268.0
6.43,270.0
6.44,268.0
6.45,269.0
6.46,269.0
6.47,269.0
6.48,273.0
6.49,276.0
6.5,274.0
6.51,274.0
6.5200000000000005,274.0
6.53,273.0
6.54,278.0
6.55,291.0
6.5600000000000005,302.0
6.57,315.0
6.58,319.0
6.59,293.0
6.6000000000000005,281.0
6.61,281.0
6.62,272.0
6.63,269.0
6.640000000000001,272.0
6.65,274.0
6.66,274.0
6.67,231.0
6.68,253.0
6.69,461.0
6.7,770.0
6.71,670.0
6.72,226.0
6.73,273.0
6.74,242.0
6.75,282.0
6.76,274.0
6.7700000000000005,274.0
6.78,284.0
6.79,288.0
6.8,291.0
6.8100000000000005,294.0
6.82,302.0
6.83,308.0
6.84,313.0
6.8500000000000005,316.0
6.86,325.0
6.87,331.0
6.88,340.0
6.890000000000001,350.0
6.9,363.0
6.91,375.0
6.92,388.0
6.93,397.0
6.94,401.0
6.95,404.0
6.96,396.0
6.97,375.0
6.98,346.0
6.99,320.0
7.0,298.0
7.01,278.0
7.0200000000000005,268.0
7.03,261.0
7.04,258.0
7.05,256.0
7.0600000000000005,259.0
7.07,256.0
7.08,262.0
7.09,264.0
7.1000000000000005,265.0
7.11,268.0
7.12,272.0
7.13,274.0
7.140000000000001,276.0
7.15,274.0
7.16,274.0
7.17,277.0
7.18,277.0
7.19,276.0
7.2,277.0
7.21,273.0
7.22,274.0
7.23,274.0
7.24,274.0
7.25,274.0
7.26,273.0
7.2700000000000005,274.0
7.28,274.0
7.29,273.0
7.3,274.0
7.3100000000000005,277.0
7.32,276.0
7.33,278.0
7.34,279.0
7.3500000000000005,278.0
7.36,279.0
7.37,280.0
7.38,282.0
7.390000000000001,281.0
7.4,282.0
7.41,283.0
7.42,283.0
7.43,284.0
7.44,288.0
7.45,286.0
7.46,289.0
7.47,288.0
7.48,286.0
7.49,288.0
7.5,290.0
7.51,288.0
7.5200000000000005,290.0
7.53,290.0
7.54,291.0
7.55,289.0
7.5600000000000005,294.0
7.57,310.0
7.58,321.0
7.59,343.0
7.6000000000000005,318.0
7.61,298.0
7.62,297.0
7.63,291.0
7.640000000000001,284.0
7.65,280.0
7.66,282.0
7.67,282.0
7.68,260.0
7.69,225.0
7.7,353.0
7.71,666.0
7.72,862.0
7.73,392.0
7.74,294.0
7.75,258.0
7.76,280.0
7.7700000000000005,286.0
7.78,273.0
7.79,283.0
7.8,284.0
7.8100000000000005,286.0
7.82,291.0
7.83,296.0
7.84,300.0
7.8500000000000005,302.0
7.86,308.0
7.87,317.0
7.88,321.0
7.890000000000001,329.0
7.9,339.0
7.91,349.0
7.92,365.0
7.930000000000001,374.0
7.94,384.0
7.95,390.0
7.96,393.0
7.97,391.0
7.98,376.0
7.99,354.0
8.0,330.0
8.01,302.0
8.02,280.0
8.03,261.0
8.040000000000001,252.0
8.05,247.0
8.06,247.0
8.07,247.0
8.08,244.0
8.09,245.0
8.1,247.0
8.11,253.0
8.120000000000001,249.0
8.13,253.0
8.14,257.0
8.15,256.0
8.16,256.0
8.17,257.0
8.18,257.0
8.19,256.0
8.2,255.0
8.21,255.0
8.22,253.0
8.23,253.0
8.24,249.0
8.25,253.0
8.26,253.0
8.27,252.0
8.28,249.0
8.290000000000001,253.0
8.3,255.0
8.31,252.0
8.32,255.0
8.33,254.0
8.34,256.0
8.35,256.0
8.36,254.0
8.370000000000001,253.0
8.38,257.0
8.39,258.0
8.4,257.0
8.41,257.0
8.42,258.0
8.43,259.0
8.44,259.0
8.45,259.0
8.46,262.0
8.47,262.0
8.48,262.0
8.49,264.0
8.5,265.0
8.51,284.0
8.52,293.0
8.53,312.0
8.540000000000001,293.0
8.55,268.0
8.56,270.0
8.57,267.0
8.58,261.0
8.59,265.0
8.6,267.0
8.61,266.0
8.620000000000001,250.0
8.63,217.0
8.64,330.0
8.65,624.0
8.66,777.0
8.67,319.0
8.68,230.0
8.69,242.0
8.700000000000001,254.0
8.71,281.0
8.72,266.0
8.73,278.0
8.74,288.0
8.75,290.0
8.76,292.0
8.77,301.0
8.78,300.0
8.790000000000001,307.0
8.8,315.0
8.81,317.0
8.82,329.0
8.83,337.0
8.84,339.0
8.85,354.0
8.86,362.0
8.870000000000001,375.0
8.88,387.0
8.89,393.0
8.9,389.0
8.91,388.0
8.92,381.0
8.93,357.0
8.94,332.0
8.950000000000001,308.0
8.96,292.0
8.97,280.0
8.98,272.0
8.99,267.0
9.0,262.0
9.01,262.0
9.02,264.0
9.03,269.0
9.040000000000001,271.0
9.05,271.0
9.06,272.0
9.07,274.0
9.08,277.0
9.09,277.0
9.1,277.0
9.11,282.0
9.120000000000001,283.0
9.13,282.0
9.14,282.0
9.15,281.0
9.16,281.0
9.17,282.0
9.18,281.0
9.19,283.0
9.200000000000001,282.0
9.21,282.0
9.22,281.0
9.23,283.0
9.24,282.0
9.25,288.0
9.26,286.0
9.27,288.0
9.28,289.0
9.290000000000001,291.0
9.3,290.0
9.31,290.0
9.32,294.0
9.33,293.0
9.34,291.0
9.35,291.0
9.36,296.0
9.370000000000001,296.0
9.38,296.0
9.39,316.0
9.4,322.0
9.41,341.0
9.42,326.0
9.43,302.0
9.44,303.0
9.450000000000001,298.0
9.46,289.0
9.47,289.0
9.48,292.0
9.49,292.0
9.5,284.0
9.51,238.0
9.52,307.0
9.53,561.0
9.540000000000001,824.0
9.55,521.0
9.56,225.0
9.57,278.0
9.58,257.0
9.59,301.0
9.6,284.0
9.61,290.0
9.620000000000001,297.0
9.63,302.0
9.64,307.0
9.65,309.0
9.66,317.0
9.67,324.0
9.68,328.0
9.69,334.0
9.700000000000001,345.0
9.71,350.0
9.72,358.0
9.73,373.0
9.74,384.0
9.75,400.0
9.76,413.0
9.77,415.0
9.78,423.0
9.790000000000001,422.0
9.8,409.0
9.81,385.0
9.82,360.0
9.83,334.0
9.84,309.0
9.85,294.0
9.86,286.0
9.870000000000001,281.0
9.88,277.0
9.89,278.0
9.9,278.0
9.91,279.0
9.92,282.0
9.93,283.0
9.94,282.0
9.950000000000001,283.0
9.96,286.0
9.97,290.0
9.98,292.0
9.99,294.0
