Time,ADC
0.0,484.0
0.01,537.0
0.02,530.0
0.03,543.0
0.04,533.0
0.05,541.0
0.06,531.0
0.07,545.0
0.08,554.0
0.09,550.0
0.1,537.0
0.11,559.0
0.12,550.0
0.13,552.0
0.14,555.0
0.15,566.0
0.16,555.0
0.17,556.0
0.18,553.0
0.19,580.0
0.2,565.0
0.21,536.0
0.22,535.0
0.23,546.0
0.24,525.0
0.25,521.0
0.26,516.0
0.27,521.0
0.28,511.0
0.29,522.0
0.3,518.0
0.31,520.0
0.32,509.0
0.33,512.0
0.34,526.0
0.35000000000000003,520.0
0.36,522.0
0.37,519.0
0.38,513.0
0.39,518.0
0.4,516.0
0.41000000000000003,512.0
0.42,511.0
0.43,508.0
0.44,511.0
0.45,533.0
0.46,516.0
0.47000000000000003,547.0
0.48,512.0
0.49,513.0
0.5,504.0
0.51,496.0
0.52,490.0
0.53,499.0
0.54,480.0
0.55,485.0
0.56,482.0
0.5700000000000001,476.0
0.58,492.0
0.59,487.0
0.6,638.0
0.61,631.0
0.62,465.0
0.63,430.0
0.64,459.0
0.65,483.0
0.66,469.0
0.67,486.0
0.68,480.0
0.6900000000000001,480.0
0.7000000000000001,494.0
0.71,481.0
0.72,477.0
0.73,496.0
0.74,490.0
0.75,494.0
0.76,498.0
0.77,496.0
0.78,504.0
0.79,506.0
0.8,493.0
0.81,517.0
0.8200000000000001,508.0
0.8300000000000001,494.0
0.84,502.0
0.85,482.0
0.86,487.0
0.87,478.0
0.88,459.0
0.89,470.0
0.9,468.0
0.91,470.0
0.92,465.0
0.93,463.0
0.9400000000000001,468.0
0.9500000000000001,490.0
0.96,478.0
0.97,466.0
0.98,476.0
0.99,485.0
1.0,488.0
1.01,476.0
1.02,483.0
1.03,484.0
1.04,471.0
1.05,487.0
1.06,483.0
1.07,487.0
1.08,508.0
1.09,509.0
1.1,505.0
1.11,492.0
1.12,492.0
1.1300000000000001,478.0
1.1400000000000001,482.0
1.1500000000000001,477.0
1.16,471.0
1.17,475.0
1.18,499.0
1.19,461.0
1.2,480.0
1.21,461.0
1.22,499.0
1.23,666.0
1.24,618.0
1.25,441.0
1.26,434.0
1.27,475.0
1.28,483.0
1.29,493.0
1.3,486.0
1.31,494.0
1.32,484.0
1.33,514.0
1.34,502.0
1.35,506.0
1.36,514.0
1.37,516.0
1.3800000000000001,513.0
1.3900000000000001,524.0
1.4000000000000001,555.0
1.41,521.0
1.42,545.0
1.43,549.0
1.44,546.0
1.45,553.0
1.46,545.0
1.47,542.0
1.48,531.0
1.49,524.0
1.5,518.0
1.51,508.0
1.52,517.0
1.53,518.0
1.54,514.0
1.55,512.0
1.56,519.0
1.57,521.0
1.58,516.0
1.59,526.0
1.6,545.0
1.61,534.0
1.62,529.0
1.6300000000000001,534.0
1.6400000000000001,533.0
1.6500000000000001,534.0
1.6600000000000001,534.0
1.67,542.0
1.68,544.0
1.69,542.0
1.7,545.0
1.71,546.0
1.72,562.0
1.73,571.0
1.74,583.0
1.75,571.0
1.76,567.0
1.77,567.0
1.78,555.0
1.79,566.0
1.8,559.0
1.81,562.0
1.82,565.0
1.83,560.0
1.84,571.0
1.85,566.0
1.86,562.0
1.87,596.0
1.8800000000000001,760.0
1.8900000000000001,689.0
1.9000000000000001,519.0
1.9100000000000001,531.0
1.92,579.0
1.93,579.0
1.94,590.0
1.95,582.0
1.96,589.0
1.97,595.0
1.98,600.0
1.99,600.0
2.0,609.0
2.0100000000000002,614.0
2.02,621.0
2.0300000000000002,624.0
2.04,627.0
2.05,634.0
2.06,636.0
2.07,639.0
2.08,651.0
2.09,648.0
2.1,644.0
2.11,652.0
2.12,652.0
2.13,633.0
2.14,639.0
2.15,633.0
2.16,620.0
2.17,624.0
2.18,629.0
2.19,626.0
2.2,628.0
2.21,625.0
2.22,628.0
2.23,634.0
2.24,632.0
2.25,645.0
2.2600000000000002,660.0
2.27,640.0
2.2800000000000002,637.0
2.29,646.0
2.3000000000000003,648.0
2.31,646.0
2.32,653.0
2.33,656.0
2.34,665.0
2.35,685.0
2.36,678.0
2.37,661.0
2.38,662.0
2.39,655.0
2.4,652.0
2.41,648.0
2.42,645.0
2.43,646.0
2.44,642.0
2.45,645.0
2.46,641.0
2.47,634.0
2.48,643.0
2.49,762.0
2.5,844.0
2.5100000000000002,660.0
2.52,580.0
2.5300000000000002,632.0
2.54,636.0
2.5500000000000003,638.0
2.56,644.0
2.57,646.0
2.58,645.0
2.59,654.0
2.6,645.0
2.61,653.0
2.62,654.0
2.63,648.0
2.64,660.0
2.65,662.0
2.66,662.0
2.67,672.0
2.68,666.0
2.69,663.0
2.7,670.0
2.71,665.0
2.72,664.0
2.73,657.0
2.74,644.0
2.75,637.0
2.7600000000000002,627.0
2.77,629.0
2.7800000000000002,626.0
2.79,616.0
2.8000000000000003,618.0
2.81,619.0
2.82,614.0
2.83,615.0
2.84,621.0
2.85,608.0
2.86,608.0
2.87,618.0
2.88,614.0
2.89,608.0
2.9,614.0
2.91,609.0
2.92,615.0
2.93,627.0
2.94,631.0
2.95,633.0
2.96,627.0
2.97,616.0
2.98,601.0
2.99,602.0
3.0,593.0
3.0100000000000002,591.0
3.02,586.0
3.0300000000000002,592.0
3.04,582.0
3.0500000000000003,591.0
3.06,580.0
3.0700000000000003,579.0
3.08,646.0
3.09,804.0
3.1,677.0
3.11,520.0
3.12,555.0
3.13,576.0
3.14,571.0
3.15,576.0
3.16,576.0
3.17,578.0
3.18,570.0
3.19,583.0
3.2,578.0
3.21,583.0
3.22,581.0
3.23,581.0
3.24,586.0
3.25,589.0
3.2600000000000002,589.0
3.27,594.0
3.2800000000000002,595.0
3.29,595.0
3.3000000000000003,590.0
3.31,593.0
3.3200000000000003,581.0
3.33,581.0
3.34,572.0
3.35,559.0
3.36,550.0
3.37,555.0
3.38,553.0
3.39,553.0
3.4,556.0
3.41,556.0
3.42,546.0
3.43,555.0
3.44,557.0
3.45,559.0
3.46,556.0
3.47,560.0
3.48,546.0
3.49,556.0
3.5,559.0
3.5100000000000002,560.0
3.52,560.0
3.5300000000000002,567.0
3.54,572.0
3.5500000000000003,579.0
3.56,576.0
3.5700000000000003,561.0
3.58,559.0
3.59,550.0
3.6,541.0
3.61,541.0
3.62,542.0
3.63,540.0
3.64,532.0
3.65,528.0
3.66,532.0
3.67,522.0
3.68,554.0
3.69,715.0
3.7,691.0
3.71,506.0
3.72,472.0
3.73,525.0
3.74,522.0
3.75,525.0
3.7600000000000002,525.0
3.77,525.0
3.7800000000000002,532.0
3.79,530.0
3.8000000000000003,540.0
3.81,532.0
3.8200000000000003,538.0
3.83,534.0
3.84,543.0
3.85,541.0
3.86,552.0
3.87,555.0
3.88,560.0
3.89,552.0
3.9,552.0
3.91,549.0
3.92,552.0
3.93,541.0
3.94,538.0
3.95,531.0
3.96,526.0
3.97,526.0
3.98,519.0
3.99,519.0
4.0,522.0
4.01,522.0
4.0200000000000005,525.0
4.03,518.0
4.04,526.0
4.05,522.0
4.0600000000000005,526.0
4.07,525.0
4.08,537.0
4.09,532.0
4.1,531.0
4.11,524.0
4.12,528.0
4.13,523.0
4.14,530.0
4.15,528.0
4.16,548.0
4.17,544.0
4.18,558.0
4.19,552.0
4.2,543.0
4.21,541.0
4.22,541.0
4.23,536.0
4.24,534.0
4.25,522.0
4.26,533.0
4.2700000000000005,524.0
4.28,526.0
4.29,535.0
4.3,525.0
4.3100000000000005,556.0
4.32,732.0
4.33,688.0
4.34,507.0
4.3500000000000005,480.0
4.36,545.0
4.37,535.0
4.38,542.0
4.39,544.0
4.4,552.0
4.41,555.0
4.42,560.0
4.43,555.0
4.44,569.0
4.45,567.0
4.46,569.0
4.47,577.0
4.48,579.0
4.49,580.0
4.5,590.0
4.51,590.0
4.5200000000000005,594.0
4.53,594.0
4.54,595.0
4.55,590.0
4.5600000000000005,590.0
4.57,580.0
4.58,571.0
4.59,562.0
4.6000000000000005,566.0
4.61,558.0
4.62,559.0
4.63,561.0
4.64,568.0
4.65,565.0
4.66,572.0
4.67,565.0
4.68,565.0
4.69,572.0
4.7,572.0
4.71,567.0
4.72,574.0
4.73,568.0
4.74,564.0
4.75,562.0
4.76,567.0
4.7700000000000005,560.0
4.78,567.0
4.79,570.0
4.8,581.0
4.8100000000000005,589.0
4.82,594.0
4.83,584.0
4.84,580.0
4.8500000000000005,571.0
4.86,569.0
4.87,558.0
4.88,559.0
4.89,566.0
4.9,562.0
4.91,567.0
4.92,562.0
4.93,556.0
4.94,558.0
4.95,665.0
4.96,775.0
4.97,626.0
4.98,495.0
4.99,542.0
5.0,568.0
5.01,573.0
5.0200000000000005,571.0
5.03,569.0
5.04,581.0
5.05,578.0
5.0600000000000005,583.0
5.07,588.0
5.08,594.0
5.09,595.0
5.1000000000000005,595.0
5.11,597.0
5.12,604.0
5.13,607.0
5.14,613.0
5.15,615.0
5.16,616.0
5.17,614.0
5.18,615.0
5.19,612.0
5.2,607.0
5.21,604.0
5.22,601.0
5.23,591.0
5.24,588.0
5.25,586.0
5.26,586.0
5.2700000000000005,594.0
5.28,589.0
5.29,595.0
5.3,600.0
5.3100000000000005,602.0
5.32,606.0
5.33,595.0
5.34,607.0
5.3500000000000005,605.0
5.36,605.0
5.37,605.0
5.38,601.0
5.39,612.0
5.4,612.0
5.41,614.0
5.42,626.0
5.43,638.0
5.44,637.0
5.45,634.0
5.46,614.0
5.47,624.0
5.48,619.0
5.49,614.0
5.5,608.0
5.51,612.0
5.5200000000000005,607.0
5.53,606.0
5.54,601.0
5.55,607.0
5.5600000000000005,607.0
5.57,693.0
5.58,826.0
5.59,680.0
5.6000000000000005,545.0
5.61,589.0
5.62,605.0
5.63,609.0
5.64,617.0
5.65,624.0
5.66,616.0
5.67,619.0
5.68,619.0
5.69,632.0
5.7,628.0
5.71,642.0
5.72,637.0
5.73,640.0
5.74,639.0
5.75,646.0
5.76,641.0
5.7700000000000005,648.0
5.78,645.0
5.79,652.0
5.8,641.0
5.8100000000000005,644.0
5.82,627.0
5.83,631.0
5.84,615.0
5.8500000000000005,620.0
5.86,614.0
5.87,615.0
5.88,609.0
5.89,614.0
5.9,609.0
5.91,619.0
5.92,612.0
5.93,621.0
5.94,609.0
5.95,612.0
5.96,614.0
5.97,617.0
5.98,615.0
5.99,619.0
6.0,617.0
6.01,631.0
6.0200000000000005,627.0
6.03,646.0
6.04,630.0
6.05,627.0
6.0600000000000005,620.0
6.07,606.0
6.08,600.0
6.09,600.0
6.1000000000000005,594.0
6.11,601.0
6.12,595.0
6.13,598.0
6.140000000000001,580.0
6.15,581.0
6.16,650.0
6.17,812.0
6.18,714.0
6.19,526.0
6.2,558.0
6.21,580.0
6.22,579.0
6.23,586.0
6.24,579.0
6.25,589.0
6.26,589.0
6.2700000000000005,591.0
6.28,589.0
6.29,594.0
6.3,601.0
6.3100000000000005,594.0
6.32,594.0
6.33,602.0
6.34,600.0
6.3500000000000005,604.0
6.36,601.0
6.37,598.0
6.38,600.0
6.390000000000001,595.0
6.4,586.0
6.41,593.0
6.42,578.0
6.43,572.0
6.44,572.0
6.45,565.0
6.46,559.0
6.47,561.0
6.48,558.0
6.49,558.0
6.5,554.0
6.51,572.0
6.5200000000000005,560.0
6.53,558.0
6.54,559.0
6.55,560.0
6.5600000000000005,555.0
6.57,560.0
6.58,552.0
6.59,552.0
6.6000000000000005,547.0
6.61,554.0
6.62,550.0
6.63,560.0
6.640000000000001,565.0
6.65,572.0
6.66,576.0
6.67,554.0
6.68,555.0
6.69,546.0
6.7,535.0
6.71,534.0
6.72,535.0
6.73,537.0
6.74,534.0
6.75,525.0
6.76,531.0
6.7700000000000005,521.0
6.78,555.0
6.79,723.0
6.8,676.0
6.8100000000000005,494.0
6.82,476.0
6.83,525.0
6.84,516.0
6.8500000000000005,522.0
6.86,529.0
6.87,531.0
6.88,533.0
6.890000000000001,536.0
6.9,541.0
6.91,537.0
6.92,533.0
6.93,536.0
6.94,545.0
6.95,544.0
6.96,565.0
6.97,572.0
6.98,564.0
6.99,569.0
7.0,574.0
7.01,567.0
7.0200000000000005,568.0
7.03,561.0
7.04,555.0
7.05,546.0
7.0600000000000005,544.0
7.07,537.0
7.08,535.0
7.09,532.0
7.1000000000000005,532.0
7.11,525.0
7.12,536.0
7.13,532.0
7.140000000000001,537.0
7.15,537.0
7.16,533.0
7.17,542.0
7.18,533.0
7.19,532.0
7.2,534.0
7.21,528.0
7.22,533.0
7.23,529.0
7.24,534.0
7.25,526.0
7.26,525.0
7.2700000000000005,542.0
7.28,552.0
7.29,553.0
7.3,553.0
7.3100000000000005,544.0
7.32,537.0
7.33,528.0
7.34,533.0
7.3500000000000005,525.0
7.36,520.0
7.37,528.0
7.38,528.0
7.390000000000001,519.0
7.4,521.0
7.41,518.0
7.42,583.0
7.43,737.0
7.44,630.0
7.45,456.0
7.46,494.0
7.47,518.0
7.48,522.0
7.49,529.0
7.5,533.0
7.51,532.0
7.5200000000000005,542.0
7.53,528.0
7.54,542.0
7.55,541.0
7.5600000000000005,546.0
7.57,549.0
7.58,559.0
7.59,558.0
7.6000000000000005,559.0
7.61,560.0
7.62,566.0
7.63,562.0
7.640000000000001,571.0
7.65,566.0
7.66,568.0
7.67,556.0
7.68,568.0
7.69,550.0
7.7,545.0
7.71,542.0
7.72,553.0
7.73,545.0
7.74,555.0
7.75,552.0
7.76,566.0
7.7700000000000005,555.0
7.78,561.0
7.79,560.0
7.8,564.0
7.8100000000000005,568.0
7.82,565.0
7.83,566.0
7.84,572.0
7.8500000000000005,561.0
7.86,568.0
7.87,564.0
7.88,573.0
7.890000000000001,571.0
7.9,577.0
7.91,585.0
7.92,594.0
7.930000000000001,608.0
7.94,606.0
7.95,591.0
7.96,602.0
7.97,582.0
7.98,580.0
7.99,576.0
8.0,579.0
8.01,583.0
8.02,581.0
8.03,572.0
8.040000000000001,579.0
8.05,579.0
8.06,614.0
8.07,768.0
8.08,728.0
8.09,542.0
8.1,548.0
8.11,577.0
8.120000000000001,578.0
8.13,598.0
8.14,597.0
8.15,602.0
8.16,596.0
8.17,600.0
8.18,616.0
8.19,604.0
8.2,616.0
8.21,617.0
8.22,622.0
8.23,625.0
8.24,619.0
8.25,632.0
8.26,633.0
8.27,627.0
8.28,631.0
8.290000000000001,625.0
8.3,631.0
8.31,626.0
8.32,625.0
8.33,617.0
8.34,615.0
8.35,605.0
8.36,607.0
8.370000000000001,604.0
8.38,601.0
8.39,609.0
8.4,609.0
8.41,612.0
8.42,617.0
8.43,617.0
8.44,619.0
8.45,616.0
8.46,617.0
8.47,617.0
8.48,622.0
8.49,614.0
8.5,621.0
8.51,625.0
8.52,626.0
8.53,639.0
8.540000000000001,641.0
8.55,634.0
8.56,628.0
8.57,628.0
8.58,612.0
8.59,605.0
8.6,607.0
8.61,607.0
8.620000000000001,604.0
8.63,600.0
8.64,601.0
8.65,602.0
8.66,588.0
8.67,641.0
8.68,800.0
8.69,724.0
8.700000000000001,540.0
8.71,571.0
8.72,595.0
8.73,596.0
8.74,598.0
8.75,595.0
8.76,598.0
8.77,607.0
8.78,609.0
8.790000000000001,609.0
8.8,607.0
8.81,615.0
8.82,610.0
8.83,619.0
8.84,621.0
8.85,627.0
8.86,622.0
8.870000000000001,627.0
8.88,618.0
8.89,626.0
8.9,627.0
8.91,628.0
8.92,618.0
8.93,609.0
8.94,600.0
8.950000000000001,595.0
8.96,594.0
8.97,596.0
8.98,590.0
8.99,598.0
9.0,601.0
9.01,596.0
9.02,595.0
9.03,598.0
9.040000000000001,595.0
9.05,606.0
9.06,597.0
9.07,605.0
9.08,601.0
9.09,600.0
9.1,595.0
9.11,600.0
9.120000000000001,607.0
9.13,619.0
9.14,619.0
9.15,628.0
9.16,618.0
9.17,613.0
9.18,598.0
9.19,600.0
9.200000000000001,593.0
9.21,591.0
9.22,589.0
9.23,593.0
9.24,586.0
9.25,590.0
9.26,581.0
9.27,586.0
9.28,654.0
9.290000000000001,800.0
9.3,676.0
9.31,526.0
9.32,561.0
9.33,585.0
9.34,585.0
9.35,581.0
9.36,589.0
9.370000000000001,594.0
9.38,590.0
9.39,597.0
9.4,594.0
9.41,598.0
9.42,604.0
9.43,598.0
9.44,602.0
9.450000000000001,612.0
9.46,601.0
9.47,609.0
9.48,607.0
9.49,615.0
9.5,605.0
9.51,605.0
9.52,600.0
9.53,601.0
9.540000000000001,588.0
9.55,585.0
9.56,578.0
9.57,578.0
9.58,572.0
9.59,574.0
9.6,579.0
9.61,569.0
9.620000000000001,576.0
9.63,579.0
9.64,569.0
9.65,581.0
9.66,581.0
9.67,582.0
9.68,577.0
9.69,570.0
9.700000000000001,581.0
9.71,576.0
9.72,569.0
9.73,571.0
9.74,578.0
9.75,586.0
9.76,591.0
9.77,595.0
9.78,593.0
9.790000000000001,580.0
9.8,579.0
9.81,567.0
9.82,561.0
9.83,565.0
9.84,555.0
9.85,558.0
9.86,559.0
9.870000000000001,555.0
9.88,552.0
9.89,550.0
9.9,580.0
9.91,752.0
9.92,720.0
9.93,522.0
9.94,507.0
9.950000000000001,552.0
9.96,545.0
9.97,557.0
9.98,554.0
9.99,555.0
