Time,ADC
0.0,-5.14290982815783e-61
0.02,3.472788320280028e-62
0.04,9.120061934313464e-61
0.06,-8.618872993313245e-61
0.08,-9.168045359571264e-61
0.1,2.3817992103050607e-60
0.12,-4.0473481546310074e-61
0.14,-4.0102294178483926e-60
0.16,4.2516784094781664e-60
0.18,3.6271034710190787e-60
0.2,-1.0965596530047057e-59
0.22,2.9514334564895624e-60
0.24,1.7510393967984782e-59
0.26,-2.0734603768011393e-59
0.28,-1.3938219778790546e-59
0.3,5.019441206797646e-59
0.32,-1.8392801705303138e-59
0.34,-7.58791155994674e-59
0.36,1.00118176916328e-58
0.38,5.14128491939547e-59
0.4,-2.2845967212486147e-58
0.42,1.0575323064967702e-58
0.44,3.260739126911053e-58
0.46,-4.791878668110365e-58
0.48,-1.780894056346988e-58
0.5,1.0339545799379487e-57
0.52,-5.786520855175058e-58
0.54,-1.388173508076144e-57
0.56,2.275365102137026e-57
0.58,5.5217451397974874e-58
0.6,-4.6527495200565875e-57
0.62,3.0605866651068586e-57
0.64,5.847002684907488e-57
0.66,-1.0726013053669822e-56
0.68,-1.3260773967076157e-57
0.7,2.081534713446274e-56
0.72,-1.5789086283831184e-56
0.74,-2.432297527146347e-56
0.76,5.022155135979036e-56
0.78,6.127858985856181e-58
0.8,-9.256385064284294e-56
0.82,7.989539376052886e-56
0.84,9.968684298217064e-56
0.86,-2.3365556592830978e-55
0.88,2.184230177583884e-56
0.9,4.0903967245990245e-55
0.92,-3.980442974263164e-55
0.94,-4.011408486130119e-55
0.96,1.0804946786978259e-54
0.98,-2.1066094979350768e-55
1.0,-1.7955462826609937e-54
1.02,1.9576077687287765e-54
1.04,1.5767799608826944e-54
1.06,-4.9672868395457156e-54
1.08,1.4583732905206764e-54
1.1,7.825738345793076e-54
1.12,-9.521994785072571e-54
1.14,-6.005812825254083e-54
1.16,2.270509541231004e-53
1.18,-8.867835099684081e-54
1.2,-3.384376500881838e-53
1.22,4.5872093575933e-53
1.24,2.1865916704180214e-53
1.26,-1.0319598129170415e-52
1.28,5.025648628979501e-53
1.3,1.4511150336782235e-52
1.32,-2.1910313359556433e-52
1.34,-7.413252220730006e-53
1.36,4.663771538362431e-52
1.38,-2.7236283875066608e-52
1.4,-6.162128945867352e-52
1.42,1.0384380747285033e-51
1.44,2.202544553514267e-52
1.46,-2.095647435467716e-51
1.48,1.4306545510028157e-51
1.5,2.5879203259148203e-51
1.52,-4.8867016879670433e-51
1.54,-4.650047611286343e-52
1.56,9.36154510250724e-51
1.58,-7.341782597062915e-51
1.6,-1.0728344264594886e-50
1.62,2.2843494291250185e-50
1.64,-3.352611342906476e-52
1.66,-4.156566993852443e-50
1.68,3.6995490578278573e-50
1.7,4.378518674531702e-50
1.72,-1.0611548448123483e-49
1.74,1.2646300277431768e-50
1.76,1.8338032469496916e-49
1.78,-1.8368060299189492e-49
1.8,-1.7526172188889535e-49
1.82,4.899830983823282e-49
1.84,-1.0771217230097867e-49
1.86,-8.03582791314404e-49
1.88,9.007262731474655e-49
1.9,6.841316415916759e-49
1.92,-2.2493175246368917e-48
1.94,7.1513457307722e-49
1.96,3.495782621310685e-48
1.98,-4.370184963819876e-48
2.0,-2.5806903865261664e-48
2.02,1.026685847129584e-47
2.04,-4.2573287615539094e-48
2.06,-1.508699524780798e-47
2.08,2.1006439944047761e-47
2.1,9.25958044893778e-48
2.12,-4.659746435534176e-47
2.14,2.3817785396130823e-47
2.16,6.453963844933186e-47
2.18,-1.001339876860528e-46
2.2,-3.0620207726606164e-47
2.22,2.1028948699518686e-46
2.24,-1.279504970443684e-46
2.26,-2.733497307567536e-46
2.28,4.737149638236674e-46
2.3,8.626627424993407e-47
2.32,-9.435559134860925e-46
2.34,6.6778842162455116e-46
2.36,1.1445059588431409e-45
2.38,-2.225426550754487e-45
2.4,-1.493803588527567e-46
2.42,4.2086873089211054e-45
2.44,-3.410004978395223e-45
2.46,-4.727454520259685e-45
2.48,1.0386391846371255e-44
2.5,-4.281567485643072e-46
2.52,-1.8657587906578356e-44
2.54,1.711497823369192e-44
2.56,1.9208519342937326e-44
2.58,-4.817463068692902e-44
2.6,6.96749220466399e-45
2.62,8.217822750895229e-44
2.64,-8.469551053645532e-44
2.66,-7.6454517254096e-44
2.68,2.2211690829869263e-43
2.7,-5.431449112997551e-44
2.72,-3.594739802882542e-43
2.74,4.141640043485471e-43
2.76,2.9620608497648207e-43
2.78,-1.0181867603335419e-42
2.8,3.484104043098499e-43
2.82,1.560803512534854e-42
2.84,-2.0045609576215044e-42
2.86,-1.1055334929309707e-42
2.88,4.640857803502414e-42
2.9,-2.0361863907632285e-42
2.92,-6.721837881566045e-42
2.94,9.614587080559606e-42
2.96,3.901948864363364e-42
2.98,-2.1033317166000025e-41
3.0,1.1259763508986913e-41
3.02,2.8686766603343607e-41
3.04,-4.5741374414990064e-41
3.06,-1.2530490436824337e-41
3.08,9.478543707273879e-41
3.1,-6.000151554859468e-41
3.12,-1.2117024304953312e-40
3.14,2.160051754213948e-40
3.16,3.297337585750064e-41
3.18,-4.246750307312761e-40
3.2,3.11283529138852e-40
3.22,5.057305770322577e-40
3.24,-1.013055769189171e-39
3.26,-4.0019645208373125e-41
3.28,1.8913821608975976e-39
3.3,-1.5821352087242197e-39
3.32,-2.0810320807169237e-39
3.34,4.720615817257992e-39
3.36,-3.184628389520028e-40
3.38,-8.37145929510927e-39
3.4,7.910840908442646e-39
3.42,8.416001745713728e-39
3.44,-2.186233201620203e-38
3.46,3.713686835790068e-39
3.48,3.6810726612545413e-38
3.5,-3.9024365457887496e-38
3.52,-3.329627243002686e-38
3.54,1.0065263357687053e-37
3.56,-2.708504108652418e-38
3.58,-1.6073224641420827e-37
3.6,1.9031542692918633e-37
3.62,1.2795343787514576e-37
3.64,-4.60733470823605e-37
3.66,1.6880001453103202e-37
3.68,6.965165815385283e-37
3.7,-9.189537444883877e-37
3.72,-4.719863196436435e-37
3.74,2.0970338454989774e-36
3.76,-9.705869090532788e-37
3.78,-2.9931438318009856e-36
3.8,4.3983393757496866e-36
3.82,1.634997094551208e-36
3.84,-9.490713324428506e-36
3.86,5.310910020810295e-36
3.88,1.274259612130342e-35
3.9,-2.0885074094956055e-35
3.92,-5.0698599726176256e-36
3.94,4.2707936874636284e-35
3.96,-2.8090773270771933e-35
3.98,-5.367233561316072e-35
4.0,9.845212588973705e-35
4.02,1.2178713226629923e-35
4.04,-1.9106632139262697e-34
4.06,1.4491780892711758e-34
4.08,2.232736531304603e-34
4.1,-4.609763370952377e-34
4.12,-5.655073451727492e-36
4.14,8.496567706453743e-34
4.16,-7.33315816211894e-34
4.18,-9.150882079872909e-34
4.2,2.1446986655984005e-33
4.22,-2.0035307888956445e-34
4.24,-3.754648194295831e-33
4.26,3.6534607437882584e-33
4.28,3.6823701216389523e-33
4.3,-9.917777479665111e-33
4.32,1.9330374935924757e-33
4.34,1.648170902480912e-32
4.36,-1.7968087855812444e-32
4.38,-1.4474672187559996e-32
4.4,4.5594504409149416e-32
4.42,-1.3383632809435227e-32
4.44,-7.183447582734935e-32
4.46,8.739907514588939e-32
4.48,5.513396544515369e-32
4.5,-2.0840978141861386e-31
4.52,8.138549361312202e-32
4.54,3.10662211262542e-31
4.56,-4.2104629784437555e-31
4.58,-2.007380558797381e-31
4.6,9.472378652071466e-31
4.62,-4.612495463142339e-31
4.64,-1.3320299814276633e-30
4.66,2.0110924229486468e-30
4.68,6.806051270254109e-31
4.7,-4.280899576892098e-30
4.72,2.4997777266300247e-30
4.74,5.6564722934944396e-30
4.76,-9.531604328900118e-30
4.78,-2.0223728017217813e-30
4.8,1.9236122137860363e-29
4.82,-1.313092651457807e-29
4.84,-2.375576055591997e-29
4.86,4.4854193025893293e-29
4.88,4.271287477695359e-30
4.9,-8.593071350285465e-29
4.92,6.738566401178407e-29
4.94,9.848146106666623e-29
4.96,-2.0967732310415856e-28
4.98,3.063664454302145e-30
5.0,3.8153757268007773e-28
5.02,-3.3956201227475854e-28
5.04,-4.0193290358295287e-28
5.06,9.74023222076314e-28
5.08,-1.1601838467740732e-28
5.1,-1.6832824634053474e-27
5.12,1.685920798398564e-27
5.14,1.6088635431897565e-27
5.16,-4.497521141769061e-27
5.18,9.884109436737328e-28
5.2,7.376268930322412e-27
5.22,-8.267414782627328e-27
5.24,-6.280286549701371e-27
5.26,2.0646403240022532e-26
5.28,-6.562971387387926e-27
5.3,-3.2088730925504654e-26
5.32,4.011246405341693e-26
5.34,2.3691164812627572e-26
5.36,-9.423944432045085e-26
5.38,3.907246579863881e-26
5.4,1.384883005495644e-25
5.42,-1.928121093297738e-25
5.44,-8.500768594533267e-26
5.46,4.277193765366864e-25
5.48,-2.185988987676717e-25
5.5,-5.924331249167794e-25
5.52,9.191056976462998e-25
5.54,2.811276284116627e-25
5.56,-1.930259567932047e-24
5.58,1.1743498020112653e-24
5.6,2.5091942030019943e-24
5.62,-4.3481345257895025e-24
5.64,-7.921358322398505e-25
5.66,8.660985984418237e-24
5.68,-6.129159901836528e-24
5.7,-1.050598964586522e-23
5.72,2.042682745166148e-23
5.74,1.3725233889120144e-24
5.76,-3.8632067204013573e-23
5.78,3.12984023591304e-23
5.8,4.3396049342054666e-23
5.82,-9.533536680985802e-23
5.84,3.9238632444049464e-24
5.86,1.712609891240392e-22
5.88,-1.5708966376903513e-22
5.9,-1.7632811112568017e-22
5.92,4.421904302431905e-22
5.94,-6.392664103769536e-23
5.96,-7.543301767111939e-22
5.98,7.77383040775163e-22
6.0,7.018381767417144e-22
6.02,-2.0387976181606974e-21
6.04,4.984270036025783e-22
6.06,3.2996969887019107e-21
6.08,-3.801455721354511e-21
6.1,-2.7191682607624914e-21
6.12,9.345907119969964e-21
6.14,-3.1974974027918766e-21
6.16,-1.432705365771608e-20
6.18,1.8399219313912486e-20
6.2,1.0149060107596375e-20
6.22,-4.2598448070744067e-20
6.24,1.8687660303227687e-20
6.26,6.170195953147678e-20
6.28,-8.824965768180825e-20
6.3,-3.5822345793671196e-20
6.32,1.9306555014095512e-19
6.34,-1.0334236076853077e-19
6.36,-2.633268071438532e-19
6.38,4.1984951086523184e-19
6.4,1.1504673249901004e-19
6.42,-8.700418660489233e-19
6.44,5.507056581049997e-19
6.46,1.1122755114806381e-18
6.48,-1.9826702184223565e-18
6.5,-3.0279743137892455e-19
6.52,3.898134450816293e-18
6.54,-2.8570615381535003e-18
6.56,-4.6423623438717664e-18
6.58,9.298682914799901e-18
6.6,3.679558128140552e-19
6.62,-1.7361249731896466e-17
6.64,1.452151257474736e-17
6.66,1.910305028527413e-17
6.68,-4.332997152978277e-17
6.7,2.9203762944715034e-18
6.72,7.684304236543308e-17
6.74,-7.260972938712419e-17
6.76,-7.725647292758573e-17
6.78,2.0067248241200694e-16
6.8,-3.407531911619612e-17
6.82,-3.378932846571013e-16
6.84,3.5818821328275516e-16
6.86,3.056548440868052e-16
6.88,-9.23885225628381e-16
6.9,2.485569882587826e-16
6.92,1.4754011252919386e-15
6.94,-1.7468364478670164e-15
6.96,-1.1746178694147466e-15
6.98,4.229062996144776e-15
7.0,-1.54916279437288e-15
7.02,-6.393529273814665e-15
7.04,8.434791840677673e-15
7.06,4.3329845433726506e-15
7.08,-1.92486967131976e-14
7.1,8.907897425982226e-15
7.12,2.7475089598193074e-14
7.14,-4.0371199997525016e-14
7.16,-1.5010524547948077e-14
7.18,8.711566345688474e-14
7.2,-4.8743909518785115e-14
7.22,-1.169693516876469e-13
7.24,1.91699485224374e-13
7.26,4.6549555147455647e-14
7.28,-3.920193554974682e-13
7.3,2.5782362078445877e-13
7.32,4.926831322249628e-13
7.34,-9.036741815845566e-13
7.36,-1.1184943786448408e-13
7.38,1.753818413558001e-12
7.4,-1.3301068103238874e-12
7.42,-2.0495487641714327e-12
7.44,4.231234940115521e-12
7.46,5.218615025915815e-14
7.48,-7.799120512017867e-12
7.5,6.7307019580289974e-12
7.52,8.40016994914828e-12
7.54,-1.9685952429962406e-11
7.56,1.8377796282877074e-12
7.58,3.4464586144826156e-11
7.6,-3.353339170782871e-11
7.62,-3.38032131178587e-11
7.64,9.103451582073194e-11
7.66,-1.7737665965727663e-11
7.68,-1.512891838450763e-10
7.7,1.6492179129785765e-10
7.72,1.328759482756305e-10
7.74,-4.1850992202503274e-10
7.76,1.2282288782962417e-10
7.78,6.593872264227754e-10
7.8,-8.022056808018077e-10
7.82,-5.061353365978268e-10
7.84,1.912990723485427e-09
7.86,-7.469239480432068e-10
7.88,-2.8516629037767335e-09
7.9,3.864658674732288e-09
7.92,1.8428573836410558e-09
7.94,-8.694714272433808e-09
7.96,4.233307105669258e-09
7.98,1.2227175819323143e-08
8.0,-1.845931026022664e-08
8.02,-6.248584344099813e-09
8.04,3.929459450939437e-08
8.06,-2.294324967299136e-08
8.08,-5.192309177105586e-08
8.1,8.748858796084757e-08
8.12,1.8569391946982294e-08
8.14,-1.7656996488746726e-07
8.16,1.205191214987012e-07
8.18,2.1806550658994743e-07
8.2,-4.117089103272138e-07
8.22,-3.9233765240232904e-08
8.24,7.887680319445707e-07
8.26,-6.184911666582645e-07
8.28,-9.04016302864409e-07
8.3,1.9245995888882783e-06
8.32,-2.7995646564204045e-08
8.34,-3.5021910927459925e-06
8.36,3.1166598346890333e-06
8.38,3.689605317149932e-06
8.4,-8.940459911821716e-06
8.42,1.064363601260323e-06
8.44,1.5451166035485357e-05
8.46,-1.5474300928657337e-05
8.48,-1.4769008593841976e-05
8.5,4.128243697328702e-05
8.52,-9.070062302139745e-06
8.54,-6.770844743533776e-05
8.56,7.588337207061437e-05
8.58,5.765264498177561e-05
8.6,-0.00018951257933906348
8.62,6.0230050955752575e-05
8.64,0.0002945511094140861
8.66,-0.00036817887119250896
8.68,-0.00021748880955551597
8.7,0.0008650234024406812
8.72,-0.0003585951743314658
8.74,-0.0012712279026793462
8.76,0.0017697672471206063
8.78,0.0007804140260318239
8.8,-0.003926047634190658
8.82,0.002006293914184991
8.84,0.005438161947862687
8.86,-0.00843624928201397
8.88,-0.0025810647118093603
8.9,0.01771796597203118
8.92,-0.010778367374853184
8.94,-0.023032966676398377
8.96,0.03991065199204304
8.98,0.007273743658626742
9.0,-0.07949995992150302
9.02,0.056255213963612286
9.04,0.09643961828438348
9.06,-0.18749405089118
9.08,-0.012611466689231484
9.1,0.3546065484047573
9.12,-0.28725947609551883
9.14,-0.39836848813168585
9.16,0.8750246304630002
9.18,-0.03575145712241983
9.2,-1.572234783816453
9.22,1.4407865336001984
9.24,1.623030416223698
9.26,-4.062466765783725
9.28,0.5625270412250842
9.3,7.0166721687613505
9.32,-7.200689822256
9.34,-6.967359297138074
9.36,20.558891348990734
9.38,-5.092959446208789
9.4,-45.58099720133353
9.42,95.81373312805889
9.44,396.5574435323697
9.46,580.0773053790826
9.48,558.6238955467766
9.5,499.7914260203998
9.52,505.46252532284603
9.54,538.4747024519629
9.56,544.1140130441493
9.58,513.43699817895
9.6,500.07325218769785
9.62,533.0156868069122
9.64,544.7956240939723
9.66,506.54793265934705
9.68,500.5173683451819
9.7,544.9065310390081
9.72,547.9300685664987
9.74,504.49103096305845
9.76,508.45914645246125
9.78,551.3442172111834
9.8,542.0344634382509
9.82,502.09131098817915
9.84,517.4727328365641
9.86,554.3315280361628
9.88,532.9415935634464
9.9,498.7556762073509
9.92,524.799008399787
9.94,555.0012802266821
9.96,523.9910923892983
9.98,498.0775394120804
10.0,535.1730071834052
10.02,561.0210993109047
10.04,526.1924987606985
10.06,510.18080517931304
10.08,551.6893882326799
10.1,566.9507470356556
10.12,528.0580565322506
10.14,520.6331131110876
10.16,560.3040638878081
10.18,559.2968900305864
10.2,513.640732378342
10.22,513.7997351880454
10.24,554.304866643026
10.26,544.0672668806972
10.28,498.75854777927793
10.3,509.58969983173927
10.32,550.7670298153889
10.34,532.8676584187203
10.36,492.41612607946513
10.38,514.8571959369258
10.4,552.130344630858
10.42,524.0518691559196
10.44,489.4669750620304
10.46,521.6196698136157
10.48,552.0105240248593
10.5,515.9742281936827
10.52,490.71067479734273
10.54,530.9263401832924
10.56,551.217659190004
10.58,507.8051160875092
10.6,493.12421443574186
10.62,537.1513940742525
10.64,541.7927321126581
10.66,501.40513884465014
10.68,536.180310429272
10.7,641.342339283072
10.72,670.4652839026621
10.74,600.0970349444253
10.76,544.691288372816
10.78,524.4425700266581
10.8,477.6594345530934
10.82,443.6693057392609
10.84,489.08501490926466
10.86,542.9874360242886
10.88,520.320143521277
10.9,488.35486808898577
10.92,524.4750706572596
10.94,559.0694679853318
10.96,526.2188296737314
10.98,500.4375262789807
11.0,536.9624240878543
11.02,558.2219381190895
11.04,521.7602682520442
11.06,509.1433259467745
11.08,550.4252634453601
11.1,559.7844605081625
11.12,517.9583573439544
11.14,513.5603798861875
11.16,555.915490184967
11.18,556.0876384047519
11.2,515.8585425764072
11.22,523.4020167510404
11.24,564.9881034393215
11.26,553.843912285909
11.28,515.3624209970583
11.3,533.4174645392147
11.32,571.1943597249226
11.34,549.0797648618719
11.36,514.7684125557214
11.38,542.6260463559656
11.4,575.259637743801
11.42,544.6485370003604
11.44,516.6720145310626
11.46,552.1714183354118
11.48,578.1517223075057
11.5,541.7186435364545
11.52,521.4695287332481
11.54,560.9582081651004
11.56,576.5462612460759
11.58,534.9579825189104
11.6,524.2650242322502
11.62,566.5596278175829
11.64,569.970417911524
11.66,524.0152729840286
11.68,523.098119402609
11.7,565.7001576188237
11.72,556.3309265790265
11.74,508.8023418488862
11.76,518.7428073530696
11.78,561.2852034482307
11.8,543.1877641610649
11.82,499.82488752875287
11.84,519.6973457895376
11.86,557.4356407569853
11.88,531.3284597741501
11.9,496.38126261925595
11.92,526.1399000563044
11.94,556.5372413260436
11.96,523.2684896036453
11.98,498.415476940528
12.0,535.4050949456531
12.02,554.6986484421611
12.04,514.6357080988115
12.06,500.91498022183794
12.08,542.98215325014
12.1,551.1260242584385
12.12,508.18293760828993
12.14,505.0265566415872
12.16,546.3873802225783
12.18,542.7458609551927
12.2,501.9481161024023
12.22,510.8986058499777
12.24,550.0371247249905
12.26,536.2693042499131
12.28,500.2669709022956
12.3,520.860290890552
12.32,556.6809947058208
12.34,532.470491308999
12.36,498.6633368009714
12.38,526.5253514090073
12.4,558.2133904433563
12.42,529.069068807701
12.44,505.0752303065081
12.46,542.4966160436866
12.48,566.4575818529102
12.5,529.7394441973129
12.52,514.6785902238987
12.54,557.2854225490232
12.56,567.3486752493433
12.58,518.3900462905881
12.6,505.49493457992185
12.62,546.7401703972346
12.64,547.4142538774374
12.66,501.36496174350776
12.68,502.8074672017045
12.7,544.9621490569936
12.72,533.7145339396693
12.74,488.2610074506874
12.76,502.49783375113657
12.78,546.6694930198331
12.8,529.3480247316575
12.82,489.79669941374135
12.84,513.4801611801818
12.86,550.4890063192004
12.88,522.613980461335
12.9,490.0189507070495
12.92,522.4147738560059
12.94,550.1706628622214
12.96,512.7682999081715
12.98,489.32162084442984
13.0,532.3890600812799
13.02,552.5618993221552
13.04,502.6737770476864
13.06,487.2534121453449
13.08,563.4812844645246
13.1,629.018896613085
13.12,617.7113572805158
13.14,596.6173510633148
13.16,586.8848460715575
13.18,523.9970391839838
13.2,443.4535701448445
13.22,453.9161484393326
13.24,520.1926363663649
13.26,522.109234357132
13.28,484.31430129052313
13.3,506.67369724355564
13.32,552.3531085747592
13.34,534.0084306630436
13.36,499.28819220588514
13.38,523.9719837720249
13.4,552.4697528824016
13.42,523.6426394153987
13.44,503.2801910031044
13.46,539.8308614495411
13.48,557.5104910336054
13.5,517.6846703478659
13.52,503.7168117010929
13.54,546.1223215349485
13.56,557.4795046482056
13.58,516.4658612251073
13.6,512.4779496578967
13.62,555.3723439347376
13.64,553.8857490776065
13.66,510.4401789200133
13.68,517.986810117629
13.7,563.1133607360307
13.72,553.7354008185664
13.74,513.760798567538
13.76,531.6183565038648
13.78,572.1754478783375
13.8,551.4841778384781
13.82,515.4850481292063
13.84,542.5788252258053
13.86,576.4759428317819
13.88,545.7411783735893
13.9,516.8459220161446
13.92,553.4685066242184
13.94,580.4227284756724
13.96,543.0472923131979
13.98,523.0583960168142
14.0,563.9493382106402
14.02,578.1031229989202
14.04,533.0624070770034
14.06,520.0197684820043
14.08,559.4829350191355
14.1,558.3246776923952
14.12,509.6168517386827
14.14,509.47549394138133
14.16,553.367787085343
14.18,544.4375976738863
14.2,498.0828408757301
14.22,509.18371358666474
14.24,550.838528728402
14.26,531.8727425088687
14.28,490.7270516979197
14.3,513.3135342995064
14.32,550.5489979711667
14.34,523.8220039696548
14.36,491.70958945738926
14.38,523.4190130303607
14.4,551.8647424179253
14.42,518.3806588048076
14.44,496.5585194584076
14.46,532.7982773133151
14.48,547.964502022219
14.5,508.3525969018397
14.52,497.89982714842716
14.54,539.0114617654497
14.56,545.2760096232755
14.58,505.0392995009609
14.6,505.0442871471162
14.62,545.3390803439918
14.64,538.8487098730633
14.66,497.14718866832885
14.68,508.14261347696686
14.7,549.8518847535431
14.72,534.4553267267613
14.74,493.6296477451486
14.76,513.9310308822955
14.78,554.8242985623219
14.8,532.7255706208515
14.82,496.5490561747897
14.84,525.1828824212832
14.86,561.986303920307
14.88,535.2704467969495
14.9,509.479350691124
14.92,546.3098744510423
14.94,571.1162094902288
14.96,530.3342918735061
14.98,506.22034350499194
15.0,543.3343125127836
15.02,554.7912030163438
15.04,508.75583762199767
15.06,497.7313107789985
15.08,541.1486933160993
15.1,542.8865819042383
15.12,496.2770758344143
15.14,498.42740222343457
15.16,542.8004844468597
15.18,533.7526799473846
15.2,490.57277088724
15.22,504.40422124743515
15.24,543.1226250191053
15.26,522.032422827381
15.28,485.6875704555666
15.3,511.2477218531737
15.32,543.2566351661794
15.34,513.2640597409263
15.36,485.8930291128977
15.38,520.8016212941811
15.4,546.4318836150943
15.42,509.5476180712463
15.44,484.50313368033744
15.46,524.0618622330537
15.48,567.4703876656804
15.5,578.4904270763326
15.52,605.7910627785986
15.54,641.7336805722083
15.56,600.6307859107758
15.58,496.2477853641783
15.6,451.3306323043491
15.62,486.25957682314845
15.64,500.20206029043
15.66,476.8295434864182
15.68,491.8324795233852
15.7,531.4814350722772
15.72,521.5889606387385
15.74,493.3973132916334
15.76,517.9734568916228
15.78,549.8009764777266
15.8,521.5502755782143
15.82,491.38512506406363
15.84,523.9432655743765
15.86,552.6739726231756
15.88,518.5140115514185
15.9,494.8905290683672
15.92,532.7687249866208
15.94,552.6250348746645
15.96,513.867025451071
15.98,502.0756708645561
16.0,546.1711516480461
16.02,554.4023256685471
16.04,509.0552152446325
16.06,506.40176002178544
16.08,553.5970513882162
16.1,552.994314250916
16.12,508.52313070921406
16.14,516.7264516485159
16.16,562.2611730164581
16.18,551.9274286536483
16.2,513.0559609748352
16.22,533.8609003174743
16.24,573.8272659383119
16.26,549.2104761737176
16.28,512.6287902162385
16.3,543.1519358436699
16.32,578.4681859254424
16.34,546.1941374234025
16.36,516.4907470514149
16.38,552.4226480686171
16.4,576.6362241702327
16.42,537.0311874312829
16.44,517.7622257047284
16.46,559.4200481583913
16.48,571.7506962657926
16.5,524.9811206051238
16.52,512.5018815217999
16.54,552.239415602967
16.56,550.6183345063097
16.58,504.07297904132383
16.6,506.42542769094615
16.62,548.183129369786
16.64,537.3850060247149
16.66,495.3745935452229
16.68,509.4915177565479
16.7,546.3671331963185
16.72,524.5500235067716
16.74,489.5192105384625
16.76,516.7961034320101
16.78,550.142633897836
16.8,520.8118555180743
16.82,494.1759968584482
16.84,530.1490953278371
16.86,554.0937279805478
16.88,515.1108305170094
16.9,496.04640017988504
16.92,538.9401464431899
16.94,555.2429804485123
16.96,512.7816472347816
16.98,503.25329451329964
17.0,546.5002128671731
17.02,548.0924987429705
17.04,501.8268138276824
17.06,505.3891856557277
17.08,552.515835956114
17.1,544.0616859055378
17.12,498.53890088414397
17.14,514.8990291238042
17.16,562.9571611910206
17.18,545.7425802917015
17.2,503.89590598100494
17.22,530.2423107118764
17.24,575.424382156534
17.26,553.137229658316
17.28,518.3326390250471
17.3,544.5723129580086
17.32,568.1269369442192
17.34,528.9729316281051
17.36,502.6347908868167
17.38,539.9362502337531
17.4,557.3753580804721
17.42,514.1651540701162
17.44,499.8192831177452
17.46,543.4685516988009
17.48,549.9384170043534
17.5,501.63312108355404
17.52,497.83262252148876
17.54,545.1743188434311
17.56,543.3448976029791
17.58,497.1638125054717
17.6,505.19394050091995
17.62,549.8352426944291
17.64,534.9711316008397
17.66,490.6094396504931
17.68,509.79286461359214
17.7,552.0096290541785
17.72,530.6526190312179
17.74,496.80971132293666
17.76,525.1829079458287
17.78,549.8139992869565
17.8,513.8050213847703
17.82,513.4681130104323
17.84,605.3335467840566
17.86,668.2653484179018
17.88,620.5397144368827
17.9,555.6773264607184
17.92,540.2746599778188
17.94,511.64588787624024
17.96,459.97675438075714
17.98,470.53059936913434
18.0,531.2661460065726
18.02,534.0801270105742
18.04,488.310486703695
18.06,501.0255264684745
18.08,556.0820853684676
18.1,547.973067902411
18.12,500.1058884664528
18.14,514.486332114335
18.16,560.6352309268411
18.18,543.5613615973141
18.2,503.3560523954335
18.22,527.2132043036122
18.24,564.4624710529918
18.26,536.7603102909854
18.28,506.1026401870985
18.3,541.6033143376835
18.32,570.1545136401891
18.34,531.8585378154685
18.36,509.70750019646357
18.38,554.2725639430324
18.4,574.5942781863148
18.42,529.7828684267606
18.44,515.8980361640329
18.46,563.0627539306973
18.48,573.7995384616913
18.5,531.4917516603891
18.52,533.0698150029647
18.54,579.1007349117509
18.56,571.9973044294522
18.58,525.7601920369107
18.6,538.9419854285038
18.62,586.4968285383908
18.64,571.3886098002123
18.66,527.6092982434701
18.68,546.7445506197444
18.7,585.4125463044372
18.72,560.6225397263195
18.74,526.7019718005886
18.76,556.8678698343037
18.78,585.4241125788285
18.8,548.3891142608006
18.82,519.7820008754202
18.84,552.751205810895
18.86,567.8120026429024
18.88,525.5708951839406
18.9,511.4432625739309
18.92,551.8752541006779
18.94,556.415123432105
18.96,510.2423741802539
18.98,507.51697171904044
19.0,552.8044283151678
19.02,550.1059581331631
19.04,503.90179402451867
19.06,508.565422818958
19.08,549.5951770931053
19.1,537.1596444683348
19.12,498.31855199114267
19.14,518.340517419019
19.16,557.1622710703864
19.18,533.2742309876487
19.2,497.4583167921982
19.22,526.026176250977
19.24,558.7821455576482
19.26,526.2574729180249
19.28,497.77528268187456
19.3,535.3064106526004
19.32,561.3661396935438
19.34,522.4520813199172
19.36,502.66696467416716
19.38,544.8645424416626
19.4,558.7510887548176
19.42,513.2853260939594
19.44,504.2793127974282
19.46,550.9530265706727
19.48,553.752305635716
19.5,505.3798711711418
19.52,507.5541157904662
19.54,556.5839099278594
19.56,551.849510817658
19.58,508.72664833689157
19.6,523.9109214460464
19.62,568.7763020351838
19.64,551.8484023353172
19.66,514.957388748098
19.68,542.2675308975025
19.7,578.1650499136932
19.72,545.2707730668618
19.74,509.67064095843983
19.76,540.1237539399787
19.78,563.0528223789466
19.8,521.5082824980186
19.82,497.2349951971263
19.84,537.1509400324214
19.86,554.7039942596354
19.88,513.4626667502564
19.9,501.7750434031759
19.92,543.4617902339403
19.94,548.506469186091
19.96,505.63970240649866
19.98,506.04204626968783
20.0,548.8982792261593
20.02,542.2486044877852
20.04,497.9828699979632
20.06,508.2545135331351
20.08,551.6924493837328
20.1,537.4020347312216
20.12,495.1764401455939
20.14,513.2228480080305
20.16,552.6543017099989
20.18,526.4587599881244
20.2,484.3548102928201
20.22,523.2652244436733
20.24,600.4038413663495
20.26,621.2237005828858
20.28,609.528680423577
20.3,613.0225388506924
20.32,576.2760825699975
20.34,480.3630043450153
20.36,438.1988734066795
20.38,494.4315716486041
20.4,531.3035849573598
20.42,495.6586487269944
20.44,487.98621568033997
20.46,538.7252178082755
20.48,548.060493085245
20.5,504.47874564258933
20.52,508.1012524048858
20.54,554.9791004400988
20.56,547.8915531693107
20.58,506.0129240828003
20.6,522.2945353542366
20.62,563.2831154658114
20.64,541.3708679010088
20.66,503.042776152613
20.68,530.3922378989078
20.7,567.0322813065427
20.72,538.3493863661195
20.74,508.69749595937304
20.76,543.000395401577
20.78,569.093919295764
20.8,532.712942063237
20.82,513.9112406430065
20.84,556.2661734053355
20.86,572.9449297736414
20.88,531.115247149673
20.9,521.7562551803443
20.92,566.0660753009156
20.94,571.7904338351373
20.96,530.5010576757295
20.98,533.4441293068971
21.0,575.2356619305444
21.02,566.5243338341473
21.04,526.478570553619
21.06,542.4654232013856
21.08,583.1816407051684
21.1,564.1370139411213
21.12,526.4440116495356
21.14,549.1228252367137
21.16,581.8643512235033
21.18,552.9954010216893
21.2,522.1171064579977
21.22,552.7999360852738
21.24,575.9463159829147
21.26,535.3251241184335
21.28,508.09953432249273
21.3,543.4473505389883
21.32,558.90446790086
21.34,514.811174220406
21.36,498.9783723867436
21.38,541.1678833746538
21.4,549.6594406244121
21.42,505.62022722814805
21.44,502.84027956484334
21.46,547.2253173613585
21.48,543.4137240190132
21.5,498.8850780191025
21.52,509.5153428855663
21.54,554.7595576635019
21.56,539.7236378346406
21.58,496.7893507688692
21.6,517.2816507194902
21.62,557.8566593081964
21.64,533.3802662178575
21.66,497.81926258911585
21.68,528.6088449150807
21.7,561.857477034356
21.72,528.217558051052
21.74,499.36469656604567
21.76,535.2460294342426
21.78,558.1474060974524
21.8,519.3887192255338
21.82,502.3917159195797
21.84,543.956257749935
21.86,555.8077781053249
21.88,513.3475375868748
21.9,508.13906905309864
21.92,552.1373371685991
21.94,552.1621071172191
21.96,508.45211896199356
21.98,512.9059711875252
22.0,552.890316873001
22.02,540.3002042761718
22.04,501.079038824434
22.06,519.3010242643638
22.08,556.5062046648293
22.1,532.9467010625965
22.12,498.46796516111016
22.14,528.3374224042378
22.16,563.4050253107121
22.18,534.3955801391837
22.2,508.00074949503664
22.22,544.9582116083398
22.24,571.3401837062482
22.26,536.0853361893662
22.28,518.8263847116204
22.3,558.2902190654752
22.32,567.8399241113752
22.34,520.1364576980106
22.36,508.1624751907864
22.38,550.197770126548
22.4,551.5965584466182
22.42,505.4279024136358
22.44,506.71361815959443
22.46,549.9015170246385
22.48,540.1168046817384
22.5,495.4048355155764
22.52,509.64201969389376
22.54,552.687900172927
22.56,532.7735574351246
22.58,490.9050535893681
22.6,514.2477209540157
22.62,551.4069169166798
22.64,522.1416029406263
22.66,488.3590897250238
22.68,522.5830911132263
22.7,552.8813810497427
22.72,514.6832227694998
22.74,489.5863807265451
22.76,533.4722710847756
22.78,553.2311786465295
22.8,502.68003361525416
22.82,495.3902692028627
22.84,583.3074885761998
22.86,645.7665475925621
22.88,617.2213419405748
22.9,583.3556245684019
22.92,571.7855034839224
22.94,512.5015604403781
22.96,439.9549830534683
22.98,459.8478960386701
23.0,527.8417877433697
23.02,523.7797150862132
23.04,483.3037712099329
23.06,509.51725567852066
23.08,557.0611405420724
23.1,534.9631458658693
23.12,497.8609375817519
23.14,525.5031956927405
23.16,556.249565281442
23.18,524.3664865175917
23.2,500.7423852017205
23.22,538.637953365288
23.24,558.5286526521802
23.26,518.254993603538
23.28,503.70297311043294
23.3,546.374846076905
23.32,557.0532051944003
23.34,515.9702646714437
23.36,514.0548810175542
23.38,558.66412120505
23.4,557.6956300394043
23.42,515.38060748411
23.44,523.5846214331248
23.46,567.0165658617907
23.48,555.7574012080845
23.5,516.350964506087
23.52,535.6302501367325
23.54,575.7604141632092
23.56,553.7164925164573
23.58,518.0400811916056
23.6,547.1020319349296
23.62,582.4096920279799
23.64,551.0173899385541
23.66,520.063619109428
23.68,555.4847757375883
23.7,582.6033578431652
23.72,544.651433228366
23.74,523.2846850587365
23.76,564.0476075241993
23.78,578.1121461298874
23.8,531.4738319407779
23.82,518.9539069296892
23.84,562.9646918138687
23.86,565.0591255112176
23.88,515.2734303881177
23.9,513.946893227315
23.92,558.742483763777
23.94,549.973928603386
23.96,502.60769400544945
23.98,513.881941716405
24.0,556.8230665990313
24.02,538.9900790251816
24.04,498.6466598086415
24.06,520.5645459811019
24.08,554.8779024628835
24.1,525.7258602554443
24.12,494.15890192615
24.14,527.1862760954874
24.16,554.7270110563904
24.18,519.5065672528762
24.2,498.90033602215925
24.22,538.9358892597904
24.24,554.9547409771978
24.26,511.8732220998673
24.28,500.28397989051615
24.3,544.6833188140681
24.32,551.5959219935105
24.34,508.41843121743244
24.36,509.0486499310375
24.38,552.3693921693095
24.4,544.5485200364428
24.42,500.2122078971452
24.44,512.7929003681311
24.46,556.1294003659837
24.48,538.9404722041002
24.5,497.66256658948834
24.52,519.7084257378464
24.54,558.767146131963
24.56,532.0788460557503
24.58,495.07705598741603
24.6,524.8815750169599
24.62,557.8947607590269
24.64,524.5521631165512
24.66,496.3148504411914
24.68,533.4148869657072
24.7,556.9240742822988
24.72,517.3182310891773
24.74,499.8149500506123
24.76,541.5385619150067
24.78,551.9277928636706
24.8,507.38118251041817
24.82,503.2853993717441
24.84,550.7201402447707
24.86,551.6615830521267
24.88,506.08646714742326
24.9,511.075664510925
24.92,555.7555618147505
24.94,546.6940234471729
24.96,506.3680258610513
24.98,523.898535809045
25.0,565.5209385709743
25.02,547.4248072796177
25.04,514.8901420539321
25.06,545.307468779016
25.08,580.394000749016
25.1,547.0701378987344
25.12,512.5021393542262
25.14,542.6480476927993
25.16,564.5187274826195
25.18,524.6166296746567
25.2,503.716243631979
25.22,543.4576656042259
25.24,556.9447960067107
25.26,513.9592418925681
25.28,504.9021275147876
25.3,548.1521748935097
25.32,551.2735669637759
25.34,507.44923446627104
25.36,509.4004520892466
25.38,551.8271251856922
25.4,542.7314820884366
25.42,499.74509801968327
25.44,512.8847346491658
25.46,552.7789851161408
25.48,533.7765192680886
25.5,496.3323522284269
25.52,519.8798567407778
25.54,554.6759759233413
25.56,527.7309080403165
25.58,493.84941599316437
25.6,521.8176317147388
25.62,566.2609981205155
25.64,580.4951057641517
25.66,607.9429152092821
25.68,654.1928831202065
25.7,630.2518151753537
25.72,524.9139108257485
25.74,461.77135005739945
25.76,491.2420717211109
25.78,514.3462488866871
25.8,488.4398980043136
25.82,494.2126248725359
25.84,542.5271161756485
25.86,545.2332076683747
25.88,508.1138455902441
25.9,521.3149157686737
25.92,563.669318507455
25.94,545.2330596062259
25.96,502.1042763342124
25.98,524.6862388444501
26.0,566.9732989985503
26.02,543.0162724947177
26.04,507.7949455968791
26.06,538.4096892668765
26.08,569.6653597646713
26.1,534.9378631851754
26.12,509.46994973862394
26.14,548.8982271243613
26.16,570.080320684443
26.18,529.6173181211485
26.2,516.7488360822031
26.22,562.0095964623183
26.24,571.4597264094064
26.26,526.5897657736505
26.28,523.4193026141319
26.3,568.5408645816092
26.32,566.319543645167
26.34,523.1315980610148
26.36,533.8361433409202
26.38,579.610590167789
26.4,567.2403826279108
26.42,526.6904625040854
26.44,546.7095577329059
26.46,585.3815121460148
26.48,559.9361317636351
26.5,525.059232127669
26.52,557.3675053185606
26.54,589.5484939493923
26.56,549.972213216305
26.58,515.6920441507416
26.6,553.3012855566001
26.62,580.8420837007367
26.64,540.5100328255664
26.66,516.5316292677694
26.68,552.8324339568684
26.7,561.7521673841845
26.72,515.5621254372195
26.74,507.720854474419
26.76,551.7603070319303
26.78,549.6251719296415
26.8,500.6705199769148
26.82,505.6652622251678
26.84,553.5912903143103
26.86,543.5952912713049
26.88,497.76714179963915
26.9,513.6554736533562
26.92,556.4246884064715
26.94,532.7495178460573
26.96,490.4574383122107
26.98,518.5394712228995
27.0,558.9149154032663
27.02,529.6733767529317
27.04,497.0187679515602
27.06,531.905749696042
27.08,559.468479530791
27.1,520.752034589746
27.12,498.96466613346274
27.14,540.9379001928853
27.16,556.5099828193881
27.18,511.4219658169654
27.2,501.3099974330501
27.22,547.9113295029472
27.24,552.7007021843552
27.26,507.4382938272741
27.28,511.5943518230687
27.3,558.4986109033699
27.32,547.8803823017726
27.34,500.7082230202485
27.36,516.9873609612137
27.38,562.7600920433042
27.4,540.6127504879779
27.42,496.4685324394164
27.44,522.554733626674
27.46,562.0258808889962
27.48,530.4785464776837
27.5,495.0211368364257
27.52,530.2178211450525
27.54,559.0392397140971
27.56,518.2206832823816
27.58,495.17800060286675
27.6,542.0683023091678
27.62,561.7318664359625
27.64,512.2295563121952
27.66,496.95945457432487
27.68,545.9355175175431
27.7,552.7831491785735
27.72,502.30618282205
27.74,502.539706654281
27.76,553.0080772557503
27.78,545.2871445998305
27.8,494.5129901947277
27.82,507.2475947107958
27.84,555.2425639871783
27.86,537.3613153463966
27.88,495.7012338449802
27.9,524.974525568997
27.92,569.1458431474274
27.94,539.1877427364595
27.96,502.88399134048313
27.98,542.7689382405083
28.0,580.7660443364168
28.02,540.8032609794154
28.04,506.8670741102258
28.06,543.7509159291596
28.08,562.4979732069739
28.1,514.8259533410207
28.12,498.278952000318
28.14,546.3196759179887
28.16,553.9604614557071
28.18,500.8961948896063
28.2,496.48211914700363
28.22,548.609173189568
28.24,546.9591026811888
28.26,495.99515767307224
28.28,503.03319484877153
28.3,549.1158017181431
28.32,531.8947901732654
28.34,486.8405706540807
28.36,511.6078245495487
28.38,555.3166690434159
28.4,525.4845042965442
28.42,485.0470684714913
28.44,518.8269601996101
28.46,555.2650874302994
28.48,519.8679582123502
28.5,488.33542407967633
28.52,522.2544734758467
28.54,551.6156489248544
28.56,545.9224684105236
28.58,584.2746704508442
28.6,661.6793652161414
28.62,653.3803294561764
28.64,546.1399487405254
28.66,478.31602192737773
28.68,495.3604003056909
28.7,497.57801039302007
28.72,464.4206210634489
28.74,483.04772144647023
28.76,538.7911767947364
28.78,531.6314140828254
28.8,488.84130309628193
28.82,511.08753041475455
28.84,557.6441801517078
28.86,530.4463790272682
28.88,484.68061995168216
28.9,516.9229986573825
28.92,561.9465876533012
28.94,528.6227776441328
28.96,490.49270831018515
28.98,529.0315402066017
29.0,562.662762610127
29.02,522.460298979158
29.04,497.702484411607
29.06,543.2175120934096
29.08,562.8729312511025
29.1,516.0838468671922
29.12,503.99709321859405
29.14,554.0895255340545
29.16,564.2090136136037
29.18,520.1716217340042
29.2,521.3221589607141
29.22,566.7135951984432
29.24,560.3981975232956
29.26,518.5437514014498
29.28,534.1244629601376
29.3,577.158630671576
29.32,557.5733197265563
29.34,517.0490915089716
29.36,541.8618574865498
29.38,580.9992514155152
29.4,554.637065077696
29.42,522.6327587465616
29.44,556.3611077284336
29.46,586.3171339302902
29.48,549.0126927800106
29.5,522.0676649206607
29.52,559.9445123330162
29.54,577.5024566142424
29.56,530.3991052209947
29.58,511.1014165310867
29.6,554.204320957148
29.62,562.8832759846885
29.64,513.8764344677468
29.66,505.6466263168186
29.68,548.1760931695449
29.7,543.596434148883
29.72,497.63914267600313
29.74,507.7849292654518
29.76,552.579463366515
29.78,534.7739117278988
29.8,489.75753150565544
29.82,513.2947633720873
29.84,558.0706203104221
29.86,531.9545037326923
29.88,492.00898701844295
29.9,522.8830824859546
29.92,557.6863811214982
29.94,521.5820079641969
29.96,491.5702879002746
29.98,532.4197331059734
30.0,559.2117214373316
30.02,518.5231984427405
30.04,500.54850950646903
30.06,544.8195062949239
30.08,556.406045674578
30.1,510.2315169022826
30.12,505.22048055832204
30.14,552.7886917298052
30.16,551.9253784909788
30.18,504.2011537701811
30.2,510.31734093753886
30.22,556.0144721776442
30.24,543.4452181896316
30.26,499.8731694682677
30.28,518.4365854482284
30.3,558.5960626360453
30.32,532.7768446056724
30.34,494.15895167119606
30.36,524.2660839722646
30.38,558.8435005078753
30.4,523.3448295740586
30.42,491.5740141165029
30.44,530.3850702986907
30.46,558.5433040717656
30.48,518.260712217327
30.5,496.28492384466904
30.52,539.1668346351753
30.54,554.988774054947
30.56,509.56383993591174
30.58,499.91279135706185
30.6,548.008577998273
30.62,552.942352360664
30.64,504.44246136436396
30.66,504.81975765374364
30.68,552.7859923136314
30.7,547.9248606965346
30.72,504.83902151855466
30.74,521.3898795026739
30.76,569.3083077284342
30.78,553.0648271336291
30.8,512.8151721075237
30.82,539.4176973949081
30.84,580.0693116300635
30.86,548.5140774541031
30.88,508.0351537381268
30.9,537.700377827229
30.92,565.3814119397323
30.94,523.4334086942242
30.96,494.65331395575157
30.98,536.1719197643056
31.0,557.4665612545855
31.02,513.1769343848525
31.04,498.35841309963376
31.06,543.5921929992658
31.08,549.5475165834031
31.1,500.2703145131533
31.12,497.48691302460577
31.14,543.1383244754068
31.16,536.258098388342
31.18,489.5762922460535
31.2,501.8608267459144
31.22,546.9640631980321
31.24,530.5173991078062
31.26,490.36240890765254
31.28,514.1422737438209
31.3,553.5293348390862
31.32,526.4055356505448
31.34,486.5586401993416
31.36,513.982573097684
31.38,565.9523483784892
31.4,583.442616727985
31.42,604.9898435181565
31.44,647.5577209570171
31.46,626.7523905353876
31.48,521.0961573775105
31.5,452.9752061100568
31.52,484.6289286935377
31.54,515.5004046338818
31.56,488.1683672320907
31.58,484.5936665714198
31.6,531.3320148647354
31.62,540.2896315379323
31.64,503.1958789633587
31.66,510.67676513014936
31.68,553.8623301029106
31.7,540.5440242095601
31.72,496.33562620811693
31.74,516.3021188756295
31.76,562.0019149702874
31.78,538.9225270880419
31.8,497.07176184759624
31.82,526.459208860975
31.84,565.8526636896358
31.86,533.1565687845518
31.88,500.1844084717662
31.9,538.873686464173
31.92,568.7298261159563
31.94,529.8797552984435
31.96,509.40599652231265
31.98,553.5072144006028
32.0,569.4753438424252
32.02,524.5956362324565
32.04,515.7056686344332
32.06,562.9414938916057
32.08,568.2895239190645
32.1,525.0051488982012
32.12,530.4216754469373
32.14,576.8824333398767
32.16,567.8753833044041
32.18,524.2609640081129
32.2,540.5783077899707
32.22,584.2764042162432
32.24,564.7938320360913
32.26,525.7933286684556
32.28,551.9029821448844
32.3,587.2483366364908
32.32,552.2782231285155
32.34,513.6513682215586
32.36,546.0241094092942
32.38,575.2974217185092
32.4,534.495331271273
32.42,503.6644924615148
32.44,539.7821887589547
32.46,558.1165186671275
32.48,513.8705429275419
32.5,496.12214030484836
32.52,536.7197930466539
32.54,543.1239604884039
32.56,497.43099555243754
32.58,495.65516099053997
32.6,541.6943476635756
32.62,535.9466512281564
32.64,486.9908297231382
32.66,495.89861661644716
32.68,542.0750541992361
32.7,525.4815074216369
32.72,479.1152183086259
32.74,500.57965051433996
32.76,545.2031468437367
32.78,519.7580502464175
32.8,479.79104277338746
32.82,511.6156853921228
32.84,548.7494391102139
32.86,513.4854120308536
32.88,482.6069284720025
32.9,523.541533144943
32.92,550.1296556535704
32.94,506.3172340837572
32.96,486.0517529399518
32.98,532.9876457591993
33.0,546.8761965305007
33.02,497.04307093274895
33.04,488.4088474958063
33.06,538.5115254715213
33.08,540.4017285512715
33.1,490.404329600262
33.12,494.16686503199656
33.14,539.6215779356311
33.16,524.422309089141
33.18,477.5950901540708
33.2,498.34170408961
33.22,542.9077011946597
33.24,516.080556800474
33.26,473.23159535625035
33.28,504.25143436203757
33.3,545.1823920462448
33.32,513.0979958138337
33.34,477.8799781528222
33.36,512.2155156638711
33.38,539.4432165441248
33.4,498.51602546908083
33.42,475.3012191000498
33.44,521.2406457274168
33.46,541.9898049034778
33.48,494.5369789736031
33.5,478.3869458464128
33.52,525.1776599751905
33.54,531.256666364935
33.56,479.5306584226075
33.58,478.6954692896595
33.6,531.8307863015275
33.62,528.1443769528506
33.64,479.2342384848451
33.66,494.68759278582706
33.68,547.4655630559997
33.7,531.57923614381
33.72,488.69524669063463
33.74,516.7463322998362
33.76,555.4064647631916
33.78,512.192411853935
33.8,465.23747625330657
33.82,504.86507867925553
33.84,542.4069707826347
33.86,494.42711067109667
33.88,457.143676064525
33.9,502.68491131835685
33.92,529.4779504940034
33.94,480.4770433837209
33.96,460.9232804935898
33.98,510.25871163021077
34.0,519.9115651788252
34.02,467.1402896966654
34.04,462.7315141305858
34.06,515.3031498701746
34.08,513.7469849449557
34.1,461.20693881562397
34.12,467.01212157354706
34.14,516.7913365622128
34.16,504.75818834775765
34.18,458.8951759778393
34.2,480.3755110634509
34.22,522.1715812037162
34.24,488.95623895749173
34.26,461.5242111687502
34.28,550.1927744469424
34.3,654.5065052135279
34.32,635.7833871222399
34.34,560.5469957444217
34.36,533.119565289844
34.38,500.1457627061022
34.4,425.93374473265885
34.42,414.0097068338346
34.44,488.0835031915085
34.46,514.2752584687163
34.48,459.1150366364726
34.5,451.47313902825715
34.52,515.9982555348697
34.54,529.1913458715294
34.56,477.57975338653785
34.58,475.910267997828
34.6,522.9176167588002
34.62,513.2604959951809
34.64,467.6176348295301
34.66,488.20293089022476
34.68,538.0393176343244
34.7,515.8442717364918
34.72,470.01164357801895
34.74,496.7267218469943
34.76,536.7098744762093
34.78,504.96227340968073
34.8,476.3528764808469
34.82,524.0302124854406
34.84,555.7802631201057
34.86,507.0043067184242
34.88,480.3867338545763
34.9,530.0844925104983
34.92,549.8453886831494
34.94,500.8138727375029
34.96,491.5924980657986
34.98,545.751478401995
35.0,553.8801069735921
35.02,506.70456981770815
35.04,512.3954202716882
35.06,563.7539416039517
35.08,551.0495202850716
35.1,496.5137664254495
35.12,512.8410800175632
35.14,567.7046665543281
35.16,550.825127612461
35.18,502.3427292790771
35.2,522.5808393594541
35.22,562.8742579456557
35.24,536.9419704445977
35.26,501.22816179779954
35.28,525.4621785438487
35.3,545.0621961370631
35.32,506.59349593745543
35.34,485.8213823555403
35.36,526.3297054986308
35.38,542.4683573945706
35.4,494.87216253017453
35.42,472.4915369894811
35.44,507.70302111331205
35.46,513.0996584649845
35.48,472.9581706125637
35.5,477.3314515812818
35.52,522.0497748935882
35.54,510.62841792440787
35.56,463.5659847634694
35.58,479.84545032238
35.6,523.8614378461939
35.62,499.0299924178938
35.64,455.9295899198966
35.66,485.2588343584732
35.68,522.2148518525926
35.7,485.11208451161144
35.72,453.44362566841454
35.74,499.2404135995119
35.76,528.7748050674049
35.78,478.60650394046223
35.8,453.15160292158
35.82,506.8916943237532
35.84,529.8320813057142
35.86,478.5324985003181
35.88,463.40106637165525
35.9,512.8134155492975
35.92,516.7133679743515
35.94,463.760547265739
35.96,468.35665271229783
35.98,529.7779701182269
36.0,526.6058193762062
36.02,463.9178089165903
36.04,464.2549125814581
36.06,517.4582031954892
36.08,507.83654979861393
36.1,460.2523205545158
36.12,482.9911430353728
36.14,529.8999280160319
36.16,495.08539622252755
36.18,442.19957746073675
36.2,475.77535932558334
36.22,521.9419756328715
36.24,482.84145885893406
36.26,441.3331830753688
36.28,483.9507442888057
36.3,515.1121497448348
36.32,458.93958668373955
36.34,424.3010116241185
36.36,477.98787337819533
36.38,503.1917433504173
36.4,446.73693349152234
36.42,430.9064407994731
36.44,492.1881001611081
36.46,505.0491239017541
36.48,450.45329623668556
36.5,453.90953134713686
36.52,515.840169790238
36.54,510.8176864571674
36.56,454.0880691586136
36.58,468.0256386097761
36.6,521.5958827914578
36.62,496.5018439270402
36.64,440.3185840868183
36.66,468.29550452230114
36.68,519.67394330485
36.7,486.5848907257872
36.72,442.2798642234001
36.74,482.8688601371517
36.76,522.0710670644849
36.78,476.757840194046
36.8,444.3346824094985
36.82,494.8580287356991
36.84,523.6215648921755
36.86,474.45304883067837
36.88,455.4869517562607
36.9,506.2656310203614
36.92,516.5656839992798
36.94,466.52688914745096
36.96,470.0978475151416
36.98,527.6614523986356
37.0,520.270272435347
37.02,460.73002144261164
37.04,464.54456736341814
37.06,508.767668938896
37.08,501.8214668072023
37.1,503.6809796176798
37.12,599.3043285241079
37.14,681.7350017236315
37.16,624.0101217642718
37.18,514.157855316402
37.2,485.8357013336355
37.22,493.05094326892623
37.24,459.4595740457832
37.26,449.2324534145342
37.28,504.45477846376554
37.3,529.5852753957399
37.32,488.81477045095625
37.34,486.42421216045767
37.36,544.2889530890438
37.38,550.4887873001371
37.4,495.4548029243925
37.42,495.8799908425228
37.44,552.0238831067978
37.46,548.5207164919466
37.48,496.8835834094725
37.5,509.5773636022135
37.52,561.8793876121358
37.54,545.2268794216934
37.56,499.1045759479922
37.58,528.7765398845877
37.6,580.8645712068228
37.62,553.2130312107804
37.64,509.03237151858775
37.66,542.6632080555318
37.68,581.1804965125139
37.7,541.6880577018901
37.72,509.4849741922253
37.74,557.996372151114
37.76,592.3652726097525
37.78,548.9416364456634
37.8,527.714572102157
37.82,578.4177607123331
37.84,596.075624417919
37.86,546.0158254281885
37.88,537.5222033491232
37.9,590.3447956601851
37.92,593.5431693403834
37.94,544.2365911776169
37.96,554.2601994408469
37.98,608.8823625773614
38.0,594.8739030956848
38.02,540.9074738121092
38.04,557.5259677557028
38.06,603.5852511538181
38.08,575.283338298415
38.1,526.7703365856373
38.12,554.2553564694377
38.14,592.277093927102
38.16,553.9541286443111
38.18,515.0622414050057
38.2,551.9127357679897
38.22,579.306255627135
38.24,532.891129330671
38.26,507.6629556021139
38.28,556.8226071915096
38.3,577.3127891995463
38.32,526.0092347905456
38.34,508.64721064523474
38.36,555.4291561426373
38.38,562.5828547381642
38.4,518.8968911942688
38.42,527.4578891989645
38.44,578.2812063420528
38.46,564.9845041457895
38.48,513.8686240287741
38.5,532.8157182166517
38.52,582.7649415139895
38.54,558.9102398883506
38.56,513.5027966887652
38.58,546.3060366188611
38.6,592.2500297961144
38.62,557.2446610712761
38.64,515.3175781229613
38.66,550.7595022951607
38.68,583.1482263410567
38.7,543.953272696901
38.72,522.1806145582176
38.74,568.6907925257979
38.76,582.5505901786553
38.78,527.4022658351018
38.8,516.2614605480269
38.82,576.2244086309324
38.84,587.6413834634459
38.86,531.4194962143721
38.88,526.2697065870856
38.9,577.7268326843714
38.92,570.1633701607311
38.94,516.6938026118123
38.96,531.93919866134
38.98,585.2075451405863
39.0,563.830226577117
39.02,513.6940183005427
39.04,543.2919452992569
39.06,594.2495750786177
39.08,565.356606576408
39.1,526.6674006819708
39.12,569.8641913088125
39.14,611.1631385420488
39.16,565.9391900972676
39.18,529.3177218540188
39.2,578.3656327546955
39.22,609.5811010868297
39.24,555.836363842491
39.26,524.9424555739652
39.28,569.3783047399447
39.3,580.7415195704309
39.32,528.0738411643363
39.34,522.4878256537802
39.36,573.7841830439487
39.38,568.4837643956946
39.4,515.0970555516934
39.42,526.8887575164528
39.44,579.9263378154988
39.46,565.093990416545
39.48,520.0097439663691
39.5,544.1834529340376
39.52,582.651789140898
39.54,544.4451258856252
39.56,502.7162826574981
39.58,544.4297797532608
39.6,584.7562207032092
39.62,541.024143697602
39.64,501.32294545887163
39.66,539.257127225505
39.68,575.082035242773
39.7,568.8836671328106
39.72,612.613338730849
39.74,706.2958438708803
39.76,701.8581936410628
39.78,579.0933900553556
39.8,506.4278433198742
39.82,538.2413478950999
39.84,542.4491462612252
39.86,490.4819317733608
39.88,502.320720467778
39.9,570.241897390458
39.92,564.9716705789735
39.94,510.1162042289028
39.96,530.7003534784895
39.98,585.2708187563694
40.0,556.2055186894931
40.02,503.9404671429523
40.04,540.4438737678829
40.06,590.1606847103042
40.08,548.5992857882957
40.1,505.0258448814111
40.12,555.289916985508
40.14,597.4065815050903
40.16,544.6556200412238
40.18,509.1787273467787
40.2,566.1517825039542
40.22,594.8760063358068
40.24,533.9942696647599
40.26,511.6336425435108
40.28,574.6204066113881
40.3,590.6522318031687
40.32,529.8750081516873
40.34,526.5700247351615
40.36,590.7118616034211
40.38,585.5443145586522
40.4,520.8580497969707
40.42,535.8696496308801
40.44,603.0905317383583
40.46,582.3138827509983
40.48,515.3442086314969
40.5,538.9308929801612
40.52,599.0718768459303
40.54,569.7162408130198
40.56,520.8153577391018
40.58,565.3425619670736
40.6,613.1708625239949
40.62,560.4946866658374
40.64,514.2931256515845
40.66,569.2422928974221
40.68,605.3737097387825
40.7,539.8438901302161
40.72,503.9355071363777
40.74,565.9732830216112
40.76,584.3080781555477
40.78,508.34797036652543
40.8,491.0666898078432
40.82,565.4535312831424
40.84,569.6880975139516
40.86,488.72493125496777
40.88,489.3628609711268
40.9,569.2674442111283
40.92,563.413363623215
40.94,492.5015476303375
40.96,511.8732788880658
40.98,576.8043201576845
41.0,542.1573780917835
41.02,477.6793186949135
41.04,520.265094536034
41.06,580.7460056336354
41.08,533.3612724852017
41.1,482.00859335595715
41.12,535.8531396983374
41.14,576.1558932078406
41.16,511.99309003125245
41.18,477.2808355611004
41.2,546.6563047062871
41.22,574.8394917465944
41.24,503.6314965248218
41.26,484.6796767272721
41.28,556.3151059517448
41.3,562.2096392001317
41.32,485.46770794254087
41.34,486.1924596021237
41.36,561.0910224676202
41.38,549.8016237298706
41.4,476.12427844311145
41.42,498.0377169170846
41.44,570.6285460967487
41.46,538.8044614584703
41.48,465.8414047879543
41.5,501.07592259024767
41.52,566.4570661127871
41.54,525.8102425474677
41.56,475.0765390565242
41.58,535.133214437988
41.6,589.3312742108393
41.62,529.2671809766764
41.64,487.61016032995957
41.66,556.934663337469
41.68,590.3748961934871
41.7,513.2006437800734
41.72,483.8677607493367
41.74,558.3099200903578
41.76,570.8964932523199
41.78,486.636881454795
41.8,475.87706900483363
41.82,553.3199702034383
41.84,548.8148591468432
41.86,469.95835666577057
41.88,484.6111971348085
41.9,562.0359278296654
41.92,537.6907741026719
41.94,463.8388503744344
41.96,497.8709955056643
41.98,565.641728401495
42.0,519.4982261060186
42.02,454.4619132941554
42.04,505.7784931944502
42.06,560.7291464887631
42.08,501.9304083614317
42.1,459.5938257204122
42.12,529.0093708339191
42.14,558.1194238924969
42.16,472.72775715930277
42.18,457.3240624515179
42.2,589.0917179571389
42.22,673.4508693856351
42.24,623.8965961998185
42.26,595.2810580033506
42.28,617.7099319725861
42.3,544.5632960692392
42.32,422.40915737547397
42.34,444.51232303241954
42.36,549.9938526674711
42.38,532.8723913781344
42.4,454.71478723908575
42.42,498.8339707807205
42.44,580.937171518343
42.46,535.5817805075519
42.48,469.59360982474914
42.5,530.2645664750352
42.52,588.9648181930015
42.54,516.7028910511153
42.56,462.8434036975582
42.58,540.4316242150173
42.6,586.0015329811565
42.62,505.05238167131876
42.64,470.2158617216091
42.66,553.766273659963
42.68,576.5465577492005
42.7,490.8303254071752
42.72,481.3847227274953
42.74,572.7365823329544
42.76,576.9071382829795
42.78,489.0872285067227
42.8,494.6761016784104
42.82,579.7305759872763
42.84,567.1992377929939
42.86,492.2819251029085
42.88,522.0477597309433
42.9,597.8168855004008
42.92,559.8905466309678
42.94,487.0717138437384
42.96,531.8960455307412
42.98,602.2864984336126
43.0,559.4127382030961
43.02,506.08571743341014
43.04,559.196558729167
43.06,600.266232190234
43.08,534.1202713255734
43.1,497.12387466790125
43.12,567.8048338539725
43.14,597.963628912577
43.16,526.8101270462801
43.18,509.1993315755439
43.2,583.6076953759173
43.22,588.7627012633088
43.24,508.8912361180792
43.26,509.89082458180445
43.28,585.7425687510485
43.3,569.3760655337006
43.32,487.8910806863381
43.34,505.77764283014557
43.36,576.27405442411
43.38,543.0920576396734
43.4,473.90842892347735
43.42,514.241213594456
43.44,575.7118717453025
43.46,524.3140923665178
43.48,465.85360601153116
43.5,520.4010276965507
43.52,567.4990389327857
43.54,504.5902861230727
43.56,467.4639538084482
43.58,540.5459653938711
43.6,571.9193987533472
43.62,493.029230342964
43.64,468.58460541775474
43.66,551.7893371223523
43.68,571.4486793064791
43.7,493.0232105238369
43.72,488.3724816091397
43.74,567.0900347495493
43.76,557.2076397289964
43.78,476.36762916850785
43.8,497.87069843122447
43.82,580.3528339062494
43.84,551.6501273707372
43.86,472.39416096967483
43.88,507.3138559503022
43.9,576.9262195976114
43.92,529.3130591246713
43.94,466.88985227273787
43.96,530.7748223887736
43.98,596.4365518141461
44.0,531.0670442332178
44.02,475.5616971408136
44.04,551.2550883515074
44.06,603.6966099093409
44.08,525.0795027308922
44.1,478.16115879270137
44.12,551.024236093314
44.14,574.515452616047
44.16,486.70232079474147
44.18,466.8628325786361
44.2,553.9301603496253
44.22,562.4236178889736
44.24,474.947916195001
44.26,477.2075664345167
44.28,563.8500091820913
44.3,552.2102709391603
44.32,469.2973023497897
44.34,489.5657542172734
44.36,563.1152835453298
44.38,527.4204821591951
44.4,458.4192446349502
44.42,507.86845221060213
44.44,574.586504729976
44.46,515.3360679650254
44.48,450.185280422135
44.5,511.4235462138038
44.52,565.51543279201
44.54,495.0210334860201
44.56,446.8920826136729
44.58,532.34461248997
44.6,611.3817993197526
44.62,595.2359734348511
44.64,608.817648754621
44.66,676.0995235248495
44.68,627.8573051344499
44.7,467.29847567230854
44.72,419.0275892357339
44.74,509.9705947982883
44.76,531.0949283812586
44.78,461.6597254525947
44.8,479.7453348045628
44.82,563.4179096876529
44.84,540.1122367930379
44.86,465.0499562644939
44.88,506.24854807605703
44.9,581.3999906141545
44.92,530.9987495099135
44.94,462.0409692926182
44.96,522.9600738571212
44.98,585.4853742056498
45.0,515.8956917789716
45.02,461.4338174787755
45.04,539.5609298272752
45.06,589.2595734765571
45.08,512.8267207609468
45.1,479.8815503111084
45.12,562.5982035529878
45.14,583.0013154675194
45.16,495.3764101886353
45.18,485.56148714097736
45.2,575.9453375101067
45.22,577.6389899295841
45.24,490.7953183499478
45.26,502.6730132306225
45.28,589.7663325657593
45.3,569.3684274806246
45.32,488.68339664272304
45.34,523.7244302025945
45.36,604.2704614069228
45.38,563.6180018430202
45.4,493.76619270016573
45.42,548.0619795220257
45.44,612.0908083474174
45.46,547.4055133168008
45.48,489.77980138053124
45.5,562.8407051726444
45.52,613.839388067435
45.54,535.1124279350903
45.56,490.4400319560323
45.58,567.1196178863609
45.6,592.8975524234937
45.62,504.30932702264175
45.64,481.8670547492343
45.66,565.2650700681297
45.68,568.2799983605239
45.7,475.4362210012332
45.72,476.1393741860949
45.74,562.2178085283949
45.76,545.3163458659433
45.78,458.1385794430456
45.8,485.17671631982273
45.82,569.5870640050817
45.84,533.1965060919721
45.86,454.09591256952035
45.88,498.6336353758586
45.9,568.0508469573962
45.92,512.2368674897759
45.94,451.4113500563875
45.96,518.5738500708098
45.98,573.6970651342795
46.0,501.48977803936594
46.02,458.9208438309984
46.04,542.2615873428563
46.06,579.7825301638841
46.08,493.865417801149
46.1,466.354058761346
46.12,555.3565223817996
46.14,574.8479006886919
46.16,489.7850199079172
46.18,486.6940160448061
46.2,573.9086316512098
46.22,564.889800831156
46.24,477.9537615072259
46.26,498.414969789663
46.28,583.825305903898
46.3,555.0203247741819
46.32,479.4627432066159
46.34,527.628480489243
46.36,606.7572938388851
46.38,555.8675875688302
46.4,490.43653582763005
46.42,558.9996499672973
46.44,623.9509752324968
46.46,548.1073559721285
46.48,484.2878671856117
46.5,553.9934668734236
46.52,595.3173446285568
46.54,511.1980231664144
46.56,474.278733677912
46.58,556.333716383087
46.6,576.2494415451565
46.62,487.8808012169416
46.64,477.43930173944443
46.66,564.9971390890385
46.68,562.2025236755605
46.7,474.58386233516416
46.72,489.002038293216
46.74,574.1525488073066
46.76,546.9506199392132
46.78,463.14948457672
46.8,499.8646082176975
46.82,580.1645039738019
46.84,536.8005781804695
46.86,464.82863275612027
46.88,516.8677111934862
46.9,579.6009241637
46.92,514.798354911646
46.94,455.0122137175216
46.96,538.0715306199726
46.98,637.6667775378548
47.0,633.2883116213166
47.02,630.8387555910988
47.04,681.4149246601264
47.06,635.6607573589321
47.08,479.5006374537607
47.1,426.6335717537167
47.12,518.9342313460061
47.14,550.0260324348934
47.16,480.28682872603434
47.18,486.42947445391246
47.2,567.4756956809988
47.22,552.7786608435638
47.24,476.79129300903116
47.26,506.9126624366662
47.28,581.9673164579267
47.3,541.145710934052
47.32,470.206520786709
47.34,521.9760330990705
47.36,590.0621396342551
47.38,533.3189633268687
47.4,476.08378115082377
47.42,544.3110818124871
47.44,598.1935896642141
47.46,529.6398843301016
47.48,489.95324069678406
47.5,564.5675284848642
47.52,591.5968717299818
47.54,510.379306344326
47.56,493.1862440715165
47.58,578.4921568125585
47.6,589.0200633816846
47.62,508.4384518332988
47.64,513.5670188069355
47.66,596.242966260937
47.68,581.3646086242675
47.7,500.95179234256744
47.72,527.4558855255561
47.74,607.846279806535
47.76,575.437770359059
47.78,502.39861344622494
47.8,545.782538859607
47.82,614.7333322789352
47.84,564.5587502990318
47.86,503.50176417166995
47.88,560.7330118008285
47.9,611.5900473211595
47.92,544.8338078895333
47.94,500.2668805048549
47.96,569.7280691859326
47.98,600.6586707771432
48.0,522.1428100761975
48.02,496.8183852968804
48.04,573.4855844247986
48.06,582.4333119612296
48.08,498.1018019376338
48.1,494.95202708555576
48.12,575.8384037746919
48.14,564.9255869812567
48.16,481.45152779533385
48.18,499.2024535713797
48.2,577.8956032745252
48.22,549.8618189027335
48.24,476.2618663614842
48.26,515.1250496397884
48.28,584.0160903777848
48.3,536.5863987518758
48.32,475.36617641364
48.34,532.6545162387787
48.36,587.96776399239
48.38,525.5701720474965
48.4,481.0478342994443
48.42,551.0271789546379
48.44,587.1134638906553
48.46,512.7684511574907
48.48,486.3254864732377
48.5,563.7209107052693
48.52,580.2038469270744
48.54,502.0562406276586
48.56,497.85231491323015
48.58,577.2358554085665
48.6,568.8245320905339
48.62,486.7151056854695
48.64,503.4856998809059
48.66,583.8075273710033
48.68,558.3381864269038
48.7,482.41661402350474
48.72,517.4602122742162
48.74,587.7692208671456
48.76,542.4721920736499
48.78,477.6445255595962
48.8,533.3067403684024
48.82,596.3770217439617
48.84,540.3945562120992
48.86,492.8999964940328
48.88,563.7477244061265
48.9,611.4373300439355
48.92,541.4306986390264
48.94,502.85984964056763
48.96,569.9277200411161
48.98,587.6284428484257
49.0,507.1552187775182
49.02,492.4092790622128
49.04,569.1770370413217
49.06,568.3108849783777
49.08,487.43193205516036
49.1,497.362651163053
49.12,576.495901483002
49.14,554.8613787293941
49.16,476.81265294582226
49.18,507.72946347739105
49.2,581.0638100130894
49.22,539.239978447787
49.24,470.1028258234701
49.26,520.0043074515047
49.28,581.0342073819545
49.3,522.2754462347061
49.32,471.2419564240413
49.34,540.3871328394025
49.36,583.7534099510701
49.38,507.5062654385845
49.4,469.6619438622695
49.42,545.2827027669987
49.44,581.9230048564193
49.46,547.7932239607744
49.48,604.4804358452742
49.5,732.6188071194473
49.52,717.4864782880226
49.54,560.840178289191
49.56,485.23539078241333
49.58,523.54865553823
49.6,514.1909081214325
49.62,463.1156732343461
49.64,504.85955524222703
49.66,580.3068924805107
49.68,544.1518438244659
49.7,476.3952193432542
49.72,521.1700806143011
49.74,583.9578340486175
49.76,532.1943686058398
49.78,477.8917986933129
49.8,540.2098786789425
49.82,590.0608370770528
49.84,522.7243342537822
49.86,482.06479592330936
49.88,556.9051101855689
49.9,591.6655555216794
49.92,515.0896584672903
49.94,490.819862033832
49.96,570.3759927397195
49.98,585.8170037543945
50.0,508.6091170479144
50.02,509.1758890373225
50.04,591.0176430050595
50.06,581.6573517064762
50.08,501.3357308064858
50.1,521.8614786293628
50.12,601.0526753545639
50.14,572.3042718100254
50.16,499.44347085436584
50.18,540.7482114047361
50.2,611.9001769308547
50.22,565.4029934617055
50.24,503.4302328250237
50.26,558.8380696223763
50.28,612.8450994477582
50.3,550.239219878044
50.32,505.83577647967223
50.34,576.2806293877152
50.36,613.1868875135721
50.38,539.6073419972638
50.4,513.9600705599942
50.42,590.8607734878742
50.44,602.8392293618433
50.46,516.7355831787111
50.48,506.24023460990503
50.5,585.3282647347826
50.52,580.2302881434337
50.54,497.4320335134483
50.56,507.0249270380993
50.58,580.8778758826071
50.6,555.4768537638172
50.62,482.438158963743
50.64,518.1510424441171
50.66,587.9291980857337
50.68,543.0869759729394
50.7,478.24616675830185
50.72,530.619846375944
50.74,587.1693766092336
50.76,525.4157971199029
50.78,475.8402313602405
50.8,545.4104634230682
50.82,589.91325909147
50.84,519.1639777598598
50.86,486.0601359767511
50.88,560.2789544726918
50.9,582.1438909603463
50.92,504.79651904480625
50.94,494.00128066660494
50.96,573.3459073658578
50.98,572.7305567516019
51.0,491.97708247836044
51.02,503.2175372487529
51.04,584.1893475820777
51.06,564.2815782044264
51.08,486.6755587673879
51.1,515.5886870037451
51.12,587.1140819142629
51.14,547.4311158977278
51.16,482.00842270717266
51.18,532.7565465042472
51.2,593.1886171458029
51.22,533.7802353592471
51.24,479.5019231969866
51.26,546.1429424886379
51.28,593.2115151166763
51.3,520.4810795502476
51.32,480.67308375399284
51.34,556.2641560098439
51.36,586.7565481392575
51.38,512.1943577598696
51.4,499.46242290665856
51.42,584.1881983612957
51.44,595.1253894862028
51.46,519.5921475237622
51.48,526.5134298587608
51.5,601.9648948634383
51.52,579.4181605576919
51.54,497.9032840916775
51.56,521.7195750573978
51.58,592.225882795575
51.6,552.0189759233956
51.62,478.47642317429296
51.64,520.2035408268265
51.66,582.8440896458305
51.68,529.4202160228001
51.7,470.3350025252782
51.72,528.3537910183243
51.74,578.3818362788761
51.76,514.3786641395877
51.78,474.19835002416255
51.8,544.8002582095543
51.82,576.8939955028341
51.84,502.86333388726604
51.86,481.01542774623215
51.88,558.930248927709
51.9,570.5387478288274
51.92,488.42878972975035
51.94,483.7559453680886
51.96,560.7155688337621
51.98,549.0085990345607
52.0,486.68166682263393
52.02,564.981998003313
52.04,715.1264631861011
52.06,709.6167513780339
52.08,592.2540603106065
52.1,558.896601275587
52.12,567.9661983176619
52.14,493.47642918240325
52.16,440.28592524912233
52.18,520.2509199652684
52.2,586.5945498222894
52.22,521.7536222805738
52.24,476.28510330871046
52.26,549.6509430444585
52.28,585.9494930167383
52.3,509.66237091447226
52.32,485.19492121985326
52.34,566.5921674318124
52.36,583.6556349527841
52.38,503.39355923879856
52.4,498.7500249460831
52.42,581.0469946303399
52.44,577.1370019513131
52.46,497.6491564176768
52.48,513.0370503560644
52.5,590.7037607678603
52.52,566.3599900682516
52.54,494.9607639307214
52.56,531.7991205619442
52.58,599.6034199365729
52.6,553.6230839626919
52.62,491.53535573330765
52.64,546.2732334587456
52.66,603.5465070355526
52.68,545.1163785849485
52.7,499.1480054493928
52.72,566.0061236233915
52.74,604.3191011782944
52.76,532.7736175261939
52.78,504.6215398378689
52.8,581.5954086015732
52.82,601.4024668539826
52.84,523.475597111662
52.86,516.5577692870595
52.88,598.772360991544
52.9,597.1192256603191
52.92,515.4461147921888
52.94,527.5184452365659
52.96,608.088181772227
52.98,586.2839052222325
53.0,507.7024532855485
53.02,535.6809637049365
53.04,603.7313523962537
53.06,559.1617491282793
53.08,489.91820212055586
53.1,537.2248339665041
53.12,594.6264162154848
53.14,535.6311072157756
53.16,483.02211571885937
53.18,545.8089965131173
53.2,586.7826058801027
53.22,515.4946549017242
53.24,481.1460125569225
53.26,555.6220804851442
53.28,580.7213802629335
53.3,503.3969631954729
53.32,487.95599678910446
53.34,567.3988243665607
53.36,573.6117005208955
53.38,495.0583312755897
53.4,501.03104662586935
53.42,579.4660231958426
53.44,561.303483619954
53.46,482.3187360078839
53.48,509.55634589203197
53.5,586.0386069812924
53.52,551.3104358786525
53.54,482.2030387960431
53.56,528.5144381441288
53.58,594.5509107536773
53.6,543.5234463541261
53.62,487.3709986641466
53.64,546.4869311562665
53.66,594.0272588316227
53.68,528.4838739990917
53.7,490.71480879309183
53.72,562.078499436893
53.74,589.0487695909967
53.76,510.3862033132807
53.78,489.3550666401876
53.8,567.5015206864462
53.82,576.8796429289669
53.84,497.6297844825432
53.86,499.3834663223953
53.88,579.1840146249864
53.9,567.6932683176625
53.92,489.9976274359419
53.94,512.3638873789195
53.96,588.5304650349515
53.98,558.5411231750198
54.0,489.8141596563124
54.02,533.9423981505748
54.04,602.5031851601381
54.06,553.3406265305459
54.08,494.3958722474152
54.1,556.2270929564068
54.12,612.2310273587365
54.14,543.922435724639
54.16,491.9402477181787
54.18,558.602440036913
54.2,592.608970387369
54.22,512.9902750102751
54.24,481.9354059576251
54.26,559.8080044229207
54.28,578.737988127561
54.3,500.77391239595653
54.32,494.63621268717293
54.34,572.5844013022911
54.36,565.734425750834
54.38,486.5383662385395
54.4,502.675613391888
54.42,579.878636874728
54.44,554.752257788305
54.46,481.5468854677461
54.48,516.4505440715701
54.5,585.4777349894268
54.52,540.3833577892574
54.54,473.79728574355556
54.56,524.622609878312
54.58,580.7146876369752
54.6,514.967334824735
54.62,470.410468603558
54.64,582.6285531641172
54.66,696.6104432946021
54.68,663.3470210879411
54.7,602.1148109845819
54.72,607.5562697244067
54.74,562.2087587176237
54.76,448.9046624800449
54.78,443.3543023628706
54.8,549.6434549112757
54.82,566.9531177858476
54.84,487.9860583760182
54.86,498.05037591295223
54.88,581.272855507473
54.9,563.2324749204872
54.92,485.7170327027906
54.94,515.8155734116015
54.96,591.3954802877349
54.98,556.3565241914895
55.0,490.52921297107247
55.02,534.5629737622962
55.04,590.4135614859149
55.06,534.3174325705099
55.08,483.24906876538944
55.1,546.4255391259812
55.12,592.2295925881074
55.14,527.3157832967688
55.16,494.0590901826106
55.18,566.391560247378
55.2,592.7644307792543
55.22,520.894983775481
55.24,509.9736109635882
55.26,589.3678697412605
55.28,593.2039831438773
55.3,513.7481808142336
55.32,520.7638131275423
55.34,601.8021387015235
55.36,587.4894171810008
55.38,510.71336947623155
55.4,536.9457486806159
55.42,612.1891706059475
55.44,576.9894096344069
55.46,505.1378323772746
55.48,547.1190533843843
55.5,611.6308215995841
55.52,561.4341761443308
55.54,504.87953479944923
55.56,564.1679216963868
55.58,614.9912954407841
55.6,549.8158968606153
55.62,504.23024993414276
55.64,567.4446879478629
55.66,594.9299354187663
55.68,520.5360944766242
55.7,498.9280921841076
55.72,572.7934200987467
55.74,578.4505746844559
55.76,495.2180106904833
55.78,491.5790143194075
55.8,567.238139087642
55.82,555.56599826865
55.84,480.9439420553375
55.86,505.5298408960009
55.88,578.7653712681786
55.9,542.4985692689531
55.92,471.23377408463836
55.94,518.2637303491224
55.96,589.7924909811202
55.98,540.8158474567012
56.0,479.3643896841285
56.02,535.4010764703961
56.04,587.2874698242008
56.06,524.1550019375957
56.08,481.75615897552115
56.1,551.3289096958842
56.12,584.917683142217
56.14,511.27245518021726
56.16,487.39650598547183
56.18,563.6215260724578
56.2,576.8833614316084
56.22,498.5471124225756
56.24,495.06568456849516
56.26,572.8893702139461
56.28,564.4188570305487
56.3,485.32277487093216
56.32,502.36667680763975
56.34,579.1434528460697
56.36,553.2474849647426
56.38,481.11610210194885
56.4,517.1167103353712
56.42,584.8388570053502
56.44,540.2580665236496
56.46,478.6723288284934
56.48,532.3891628972115
56.5,590.2742103623497
56.52,534.4698712395488
56.54,489.93737234017465
56.56,557.7606891425203
56.58,599.8911328672318
56.6,532.6441019228046
56.62,505.669943375742
56.64,584.2788343447354
56.66,607.9879570622902
56.68,528.0901720093574
56.7,509.4699664451621
56.72,580.7195234337148
56.74,577.2521700255556
56.76,496.24976134602707
56.78,503.64606427764176
56.8,579.0572574532202
56.82,558.2525470302076
56.84,481.93701599245844
56.86,507.15155596360535
56.88,573.2603342134187
56.9,534.9071623239377
56.92,474.2842854024907
56.94,524.0970687929723
56.96,580.3291947736011
56.98,521.5111544918284
57.0,469.65496260949317
57.02,534.2805512732207
57.04,580.4838450301297
57.06,513.6162956208289
57.08,477.25536565272444
57.1,547.1904887117303
57.12,570.950619518106
57.14,490.4206326014964
57.16,469.71577452004516
57.18,565.7775922128983
57.2,627.2930368977829
57.22,610.7406558665677
57.24,634.153372753058
57.26,673.9228130585232
57.28,590.2402761758786
57.3,454.277920691927
57.32,455.5094031452493
57.34,537.2382456602403
57.36,518.8334914056043
57.38,459.1271702004093
57.4,508.3590755426777
57.42,578.0257395686496
57.44,530.534035488637
57.46,474.75162263120666
57.48,534.0787159566332
57.5,584.18769335465
57.52,520.609992100729
57.54,482.4969295836802
57.56,554.0409291128856
57.58,584.590272021709
57.6,512.495961697219
57.62,497.01756009565395
57.64,575.6574633988444
57.66,581.8656060785008
57.68,500.8003862454678
57.7,503.9437364815178
57.72,586.7370502181154
57.74,578.1972020185863
57.76,501.3412322018176
57.78,521.3546007825992
57.8,596.0157981782443
57.82,569.3489730799981
57.84,503.37636190750925
57.86,542.7106303012702
57.88,604.8000734592135
57.9,556.7704611234967
57.92,501.2720261873625
57.94,559.3864862819893
57.96,610.4042302638815
57.98,546.4655902437962
58.0,503.7047433684055
58.02,574.5355466547355
58.04,610.5325581497237
58.06,536.647890559406
58.08,509.09346177957946
58.1,582.93592066402
58.12,598.48533940854
58.14,523.9946742241589
58.16,520.7164532231999
58.18,594.9986971338466
58.2,583.4783730882028
58.22,503.3636379565594
58.24,519.0869140138384
58.26,593.4740701729628
58.28,565.124739184085
58.3,489.01719815381966
58.32,518.3104059871087
58.34,580.5411158341676
58.36,535.7289049949661
58.38,476.18466354825466
58.4,528.5644865242803
58.42,581.5418730879933
58.44,521.0144388699539
58.46,473.12504198061987
58.48,537.137654385451
58.5,575.1302391266543
58.52,506.12311842534575
58.54,479.08397862493206
58.56,555.0986636467148
58.58,575.1364272928726
58.6,497.55716114381414
58.62,487.5721049753743
58.64,566.6060029407042
58.66,567.330044486172
58.68,489.6321079257799
58.7,499.7235447073035
58.72,575.9736236338604
58.74,556.0241171087841
58.76,483.3089737441924
58.78,514.1432888783146
58.8,583.5926615919577
58.82,543.0313502783333
58.84,477.2470638618422
58.86,524.6630138836013
58.88,583.1698808307881
58.9,528.6487613110287
58.92,479.2642469766353
58.94,541.7465316011965
58.96,582.4344184025176
58.98,512.0660627442885
59.0,476.7862379005231
59.02,548.6122154950999
59.04,574.6449709601143
59.06,504.17570480232695
59.08,495.5121223891295
59.1,575.7571708696532
59.12,579.9927963268376
59.14,501.9649532951301
59.16,510.4075434465561
59.18,592.1118464424374
59.2,577.5297466771578
59.22,497.25440883777327
59.24,515.6266726805754
59.26,583.5526859381753
59.28,547.3437890432981
59.3,478.1898714103365
59.32,518.8261360386517
59.34,577.7756428274631
59.36,525.677276065342
59.38,472.2624592716512
59.4,531.1442642554186
59.42,575.7609473826253
59.44,508.715641203444
59.46,470.38620540843357
59.48,541.3767625577723
59.5,571.7929762672773
59.52,499.6648668574824
59.54,480.2776746740727
59.56,554.1490983535609
59.58,562.1028099204946
59.6,485.58555800039295
59.62,487.38778371983244
59.64,565.2400357489637
59.66,551.1628214377123
59.68,466.5497230564934
59.7,494.14527286719954
59.72,615.7186853408589
59.74,653.5308578027734
59.76,614.3577685435005
59.78,621.7707730570839
59.8,619.3239971594592
59.82,510.1061464182493
59.84,421.14189699556266
59.86,480.5324754777449
59.88,555.1387117318794
59.9,511.16780733129553
59.92,467.2393394153059
59.94,534.145710237063
59.96,584.3186599487933
59.98,505.10506100780174
