Time;ADC
0;2.62E-78
0.02;-2.64E-77
0.04;-2.49E-77
0.06;7.02E-77
0.08;-1.58E-78
0.1;-1.15E-76
0.12;1.29E-76
0.14;9.72E-78
0.16;-3.22E-77
0.18;1.04E-76
0.2;5.00E-77
0.22;-6.28E-77
0.24;-3.66E-77
0.26;1.47E-75
0.28;-6.17E-77
0.3;-2.16E-77
0.32;3.02E-76
0.34;1.31E-75
0.36;-6.67E-76
0.38;3.44E-76
0.4;9.22E-76
0.42;-1.44E-74
0.44;-4.31E-75
0.46;3.01E-75
0.48;-1.85E-75
0.5;-3.90E-76
0.52;6.80E-75
0.54;1.20E-74
0.56;-1.35E-74
0.58;9.62E-76
0.6;1.63E-74
0.62;-3.19E-74
0.64;-1.97E-74
0.66;6.02E-74
0.68;-4.91E-74
0.7;-6.74E-74
0.72;1.49E-73
0.74;-6.90E-75
0.76;-2.67E-72
0.78;2.46E-72
0.8;2.74E-72
0.82;-6.91E-73
0.84;1.03E-72
0.86;1.18E-71
0.88;-1.22E-72
0.9;-1.09E-71
0.92;3.18E-72
0.94;-7.94E-73
0.96;-5.14E-73
0.98;5.95E-72
1;4.21E-71
1.02;-1.46E-70
1.04;5.06E-72
1.06;2.23E-70
1.08;-2.88E-70
1.1;-1.57E-70
1.12;6.65E-71
1.14;-2.95E-70
1.16;-9.60E-71
1.18;1.38E-69
1.2;5.51E-70
1.22;-3.01E-70
1.24;1.63E-69
1.26;4.10E-70
1.28;-6.57E-70
1.3;-1.76E-70
1.32;1.36E-68
1.34;-8.66E-70
1.36;-1.73E-68
1.38;3.10E-68
1.4;4.56E-70
1.42;-6.08E-69
1.44;4.49E-69
1.46;7.21E-69
1.48;-1.45E-67
1.5;-4.98E-69
1.52;2.71E-68
1.54;-2.28E-68
1.56;-2.97E-67
1.58;6.77E-68
1.6;-4.91E-69
1.62;-1.20E-66
1.64;1.14E-67
1.66;1.20E-66
1.68;-3.13E-67
1.7;5.48E-67
1.72;5.26E-67
1.74;-5.61E-67
1.76;-4.74E-67
1.78;1.44E-65
1.8;-3.95E-67
1.82;-2.30E-65
1.84;2.74E-66
1.86;1.82E-65
1.88;-6.60E-66
1.9;2.45E-65
1.92;9.95E-66
1.94;-1.32E-64
1.96;-6.69E-66
1.98;3.00E-66
2;-1.40E-64
2.02;-4.28E-65
2.04;6.32E-64
2.06;2.31E-64
2.08;-1.36E-64
2.1;7.67E-65
2.12;1.82E-63
2.14;-3.00E-64
2.16;-7.10E-65
2.18;6.11E-64
2.2;-4.05E-63
2.22;-7.66E-64
2.24;1.41E-62
2.26;1.67E-63
2.28;-2.73E-64
2.3;2.09E-62
2.32;3.18E-63
2.34;-6.61E-63
2.36;-4.68E-65
2.38;1.22E-61
2.4;-1.06E-61
2.42;-1.30E-61
2.44;3.08E-61
2.46;-3.03E-62
2.48;-5.37E-62
2.5;5.26E-62
2.52;5.24E-62
2.54;-1.42E-61
2.56;2.84E-62
2.58;2.36E-60
2.6;-2.58E-61
2.62;-2.06E-61
2.64;6.53E-61
2.66;-1.95E-61
2.68;-1.03E-59
2.7;1.26E-60
2.72;7.82E-61
2.74;-2.99E-59
2.76;1.18E-60
2.78;4.44E-60
2.8;-6.05E-60
2.82;-2.84E-59
2.84;1.36E-58
2.86;-6.67E-60
2.88;-1.90E-58
2.9;2.89E-59
2.92;9.59E-61
2.94;-6.13E-58
2.96;3.61E-59
2.98;8.08E-59
3;-1.37E-57
3.02;-2.82E-59
3.04;2.75E-57
3.06;-1.89E-58
3.08;-3.39E-58
3.1;6.44E-58
3.12;5.78E-59
3.14;-1.23E-56
3.16;9.71E-59
3.18;1.40E-56
3.2;-3.01E-56
3.22;5.94E-58
3.24;5.46E-57
3.26;-4.89E-57
3.28;-5.73E-57
3.3;1.40E-55
3.32;-1.73E-57
3.34;-2.41E-56
3.36;2.42E-55
3.38;2.29E-57
3.4;-6.45E-55
3.42;1.45E-55
3.44;1.05E-54
3.46;-1.19E-54
3.48;-8.92E-57
3.5;2.96E-55
3.52;-9.54E-56
3.54;-4.59E-55
3.56;5.76E-55
3.58;3.36E-55
3.6;-1.35E-53
3.62;5.66E-55
3.64;1.98E-53
3.66;-2.77E-54
3.68;-1.20E-54
3.7;6.13E-54
3.72;-3.16E-54
3.74;-8.46E-54
3.76;1.32E-52
3.78;3.95E-53
3.8;-2.76E-52
3.82;1.69E-52
3.84;3.58E-53
3.86;-6.24E-52
3.88;-1.10E-52
3.9;1.24E-51
3.92;-8.83E-53
3.94;-1.50E-51
3.96;2.93E-51
3.98;1.81E-53
4;-5.53E-53
4.02;4.51E-53
4.04;6.19E-52
4.06;-1.37E-50
4.08;6.32E-53
4.1;2.45E-51
4.12;-2.26E-50
4.14;-2.51E-50
4.16;6.34E-52
4.18;-9.47E-53
4.2;-1.08E-49
4.22;1.12E-49
4.24;9.98E-51
4.26;-2.92E-50
4.28;7.28E-51
4.3;4.72E-49
4.32;-5.46E-50
4.34;-3.86E-50
4.36;1.34E-48
4.38;-4.64E-50
4.4;-2.05E-48
4.42;2.64E-48
4.44;1.44E-49
4.46;-6.10E-49
4.48;2.71E-49
4.5;8.81E-49
4.52;-1.27E-47
4.54;-5.06E-49
4.56;2.77E-47
4.58;-1.49E-47
4.6;-3.76E-49
4.62;6.03E-48
4.64;1.62E-47
4.66;-1.25E-47
4.68;7.94E-48
4.7;1.59E-47
4.72;-2.85E-47
4.74;-4.19E-47
4.76;5.58E-47
4.78;-4.12E-46
4.8;-6.62E-47
4.82;1.33E-46
4.84;4.58E-47
4.86;-2.48E-46
4.88;2.09E-45
4.9;2.72E-45
4.92;-6.21E-45
4.94;4.50E-47
4.96;1.10E-44
4.98;-1.04E-44
5;-1.10E-44
5.02;2.88E-45
5.04;-5.02E-46
5.06;-4.83E-45
5.08;5.15E-46
5.1;4.35E-44
5.12;-1.32E-46
5.14;3.62E-44
5.16;2.11E-43
5.18;-2.51E-43
5.2;-1.67E-43
5.22;6.06E-44
5.24;-2.25E-44
5.26;-9.14E-44
5.28;1.21E-43
5.3;6.14E-44
5.32;-2.76E-42
5.34;1.29E-42
5.36;3.92E-43
5.38;-5.80E-43
5.4;-2.12E-43
5.42;1.25E-41
5.44;-7.04E-43
5.46;-1.67E-42
5.48;2.75E-42
5.5;6.52E-43
5.52;-5.61E-44
5.54;3.72E-42
5.56;7.03E-42
5.58;-1.30E-40
5.6;-1.53E-41
5.62;2.51E-41
5.64;-1.92E-40
5.66;-2.92E-40
5.68;6.07E-41
5.7;4.33E-43
5.72;-1.12E-39
5.74;9.69E-41
5.76;1.20E-39
5.78;-2.82E-39
5.8;2.78E-41
5.82;4.93E-40
5.84;-4.82E-40
5.86;-4.81E-41
5.88;1.31E-38
5.9;-2.61E-40
5.92;-2.16E-39
5.94;2.37E-38
5.96;1.89E-38
5.98;-6.00E-39
6;1.79E-38
6.02;9.43E-39
6.04;-1.15E-37
6.06;-7.18E-39
6.08;2.74E-37
6.1;-1.08E-37
6.12;-4.07E-37
6.14;5.55E-38
6.16;2.61E-37
6.18;-1.25E-37
6.2;6.12E-38
6.22;1.75E-36
6.24;-2.65E-36
6.26;-8.80E-38
6.28;5.63E-37
6.3;-3.31E-36
6.32;-7.41E-37
6.34;1.26E-35
6.36;2.59E-36
6.38;-2.53E-35
6.4;1.74E-35
6.42;3.11E-36
6.44;-5.91E-36
6.46;-5.31E-37
6.48;1.13E-34
6.5;-8.91E-36
6.52;-1.29E-34
6.54;2.76E-35
6.56;-5.43E-37
6.58;-5.01E-35
6.6;4.49E-35
6.62;5.26E-35
6.64;-1.28E-33
6.66;1.59E-35
6.68;2.21E-34
6.7;-2.23E-33
6.72;-2.10E-33
6.74;5.92E-34
6.76;-1.33E-34
6.78;-9.68E-34
6.8;1.09E-32
6.82;8.19E-34
6.84;-2.72E-32
6.86;8.76E-34
6.88;4.21E-33
6.9;-5.29E-33
6.92;-3.08E-33
6.94;1.24E-31
6.96;-5.20E-33
6.98;-1.82E-32
7;2.54E-31
7.02;1.10E-31
7.04;-5.62E-32
7.06;2.90E-31
7.08;7.77E-32
7.1;-1.21E-30
7.12;-3.63E-32
7.14;2.54E-30
7.16;-1.56E-30
7.18;-3.29E-30
7.2;5.73E-31
7.22;1.01E-30
7.24;-1.14E-29
7.26;8.11E-32
7.28;1.38E-29
7.3;-2.69E-30
7.32;-1.67E-31
7.34;5.07E-30
7.36;-4.14E-30
7.38;-5.68E-30
7.4;1.26E-29
7.42;-5.79E-31
7.44;-2.25E-29
7.46;2.07E-29
7.48;2.31E-29
7.5;-5.82E-30
7.52;8.69E-31
7.54;9.90E-29
7.56;-1.03E-27
7.58;-9.17E-29
7.6;2.68E-27
7.62;-6.68E-29
7.64;-4.33E-28
7.66;5.01E-27
7.68;3.55E-28
7.7;-1.23E-26
7.72;4.26E-27
7.74;1.88E-26
7.76;-2.43E-27
7.78;-1.32E-26
7.8;5.60E-28
7.82;-2.48E-26
7.84;-8.09E-27
7.86;1.16E-25
7.88;4.65E-27
7.9;-2.54E-26
7.92;1.37E-26
7.94;3.45E-27
7.96;-5.53E-26
7.98;-1.48E-27
8;1.14E-24
8.02;-7.29E-26
8.04;-1.46E-25
8.06;2.61E-25
8.08;3.84E-26
8.1;-5.12E-25
8.12;3.78E-24
8.14;6.08E-25
8.16;-1.22E-23
8.18;-4.21E-26
8.2;2.28E-23
8.22;-1.92E-23
8.24;-2.50E-24
8.26;5.70E-24
8.28;-4.13E-25
8.3;-1.01E-22
8.32;9.59E-24
8.34;1.01E-22
8.36;-2.64E-24
8.38;4.61E-23
8.4;4.44E-24
8.42;-4.73E-23
8.44;-3.99E-23
8.46;1.22E-21
8.48;-3.33E-24
8.5;-1.94E-23
8.52;2.30E-21
8.54;1.53E-21
8.56;-5.56E-22
8.58;2.06E-21
8.6;8.39E-23
8.62;-1.11E-20
8.64;-5.63E-22
8.66;2.53E-20
8.68;-1.18E-20
8.7;-3.60E-21
8.72;5.32E-21
8.74;1.94E-21
8.76;-1.15E-20
8.78;6.46E-21
8.8;1.53E-19
8.82;-2.53E-19
8.84;-5.99E-20
8.86;5.15E-20
8.88;-3.41E-19
8.9;-6.45E-20
8.92;1.19E-18
8.94;1.41E-20
8.96;-2.30E-18
8.98;1.76E-19
9;2.68E-20
9.02;-5.57E-19
9.04;-4.01E-20
9.06;1.02E-17
9.08;-8.89E-19
9.1;-1.10E-17
9.12;2.59E-17
9.14;-2.55E-18
9.16;-4.53E-18
9.18;4.43E-18
9.2;4.42E-18
9.22;-1.20E-16
9.24;2.39E-17
9.26;1.99E-16
9.28;-2.18E-16
9.3;-1.73E-17
9.32;5.51E-17
9.34;-1.64E-16
9.36;-8.65E-17
9.38;1.06E-15
9.4;6.59E-17
9.42;-2.52E-15
9.44;9.94E-17
9.46;3.74E-15
9.48;-5.09E-16
9.5;-2.39E-15
9.52;1.14E-15
9.54;-5.62E-15
9.56;-1.60E-15
9.58;2.43E-14
9.6;8.08E-16
9.62;-5.17E-15
9.64;3.04E-15
9.66;6.80E-15
9.68;-1.15E-13
9.7;-2.38E-14
9.72;2.32E-13
9.74;-1.59E-13
9.76;-2.86E-13
9.78;5.42E-14
9.8;4.88E-16
9.82;-1.04E-13
9.84;8.18E-14
9.86;1.18E-12
9.88;-2.53E-12
9.9;4.97E-14
9.92;4.60E-14
9.94;-4.12E-13
9.96;-4.82E-13
9.98;1.18E-11
10;-1.46E-13
10.02;-2.03E-11
10.04;2.04E-12
10.06;1.93E-11
10.08;-5.43E-11
10.1;1.22E-11
10.12;8.89E-12
10.14;-1.00E-10
10.16;-7.52E-12
10.18;2.49E-10
10.2;-8.04E-12
10.22;-3.86E-11
10.24;4.86E-11
10.26;2.83E-10
10.28;-1.14E-09
10.3;4.77E-10
10.32;1.67E-10
10.34;-2.33E-10
10.36;-1.01E-09
10.38;5.16E-10
10.4;-2.66E-10
10.42;-7.13E-10
10.44;1.11E-08
10.46;3.33E-09
10.48;-2.33E-10
10.5;1.43E-08
10.52;3.02E-10
10.54;-5.26E-08
10.56;-9.29E-10
10.58;1.04E-07
10.6;-7.44E-09
10.62;-1.26E-09
10.64;2.47E-08
10.66;1.53E-09
10.68;-4.66E-07
10.7;3.80E-08
10.72;5.21E-08
10.74;-1.15E-07
10.76;5.31E-08
10.78;2.06E-07
10.8;-1.90E-06
10.82;-2.12E-06
10.84;5.34E-07
10.86;-7.98E-08
10.88;-9.09E-07
10.9;9.42E-09
10.92;8.41E-07
10.94;-2.46E-06
10.96;6.13E-07
10.98;3.98E-05
11;-4.60E-06
11.02;-3.26E-05
11.04;1.13E-04
11.06;-3.91E-06
11.08;-1.73E-05
11.1;2.23E-04
11.12;1.21E-04
11.14;-5.14E-04
11.16;2.28E-04
11.18;7.43E-05
11.2;-1.07E-03
11.22;-4.26E-05
11.24;2.33E-03
11.26;-1.26E-03
11.28;-3.17E-04
11.3;5.08E-04
11.32;1.36E-03
11.34;-1.05E-02
11.36;6.69E-04
11.38;1.34E-02
11.4;-2.40E-03
11.42;-3.53E-04
11.44;4.70E-03
11.46;-3.47E-02
11.48;-5.58E-02
11.5;1.12E-03
11.52;3.87E-03
11.54;-2.09E-01
11.56;1.76E-02
11.58;2.29E-01
11.6;-5.24E-02
11.62;3.78E-02
11.64;9.26E-02
11.66;-8.80E-02
11.68;-9.27E-03
11.7;2.42E+00
11.72;-4.23E-02
11.74;-4.07E-01
11.76;4.34E+00
11.78;3.66E-01
11.8;-1.12E+01
11.82;3.05E+00
11.84;1.78E-01
11.86;-2.11E+00
11.88;-1.41E+00
11.9;5.11E+00
11.92;-1.89E+01
11.94;-7.70E+00
11.96;1.02E+02
11.98;5.17E+00
12;-2.32E+02
12.02;1.09E+01
12.04;3.31E+01
12.06;-4.88E+01
12.08;-1.79E+02
12.1;1.05E+03
12.12;-5.93E+01
12.14;-1.41E+03
12.16;2.32E+02
12.18;5.50E+02
12.2;-4.73E+02
12.22;3.13E+02
12.24;5.92E+02
12.26;-1.09E+04
12.28;-1.29E+03
12.3;2.12E+04
12.32;-1.61E+04
12.34;-2.46E+04
12.36;5.11E+03
12.38;3.72E+01
12.4;-9.40E+03
12.42;8.16E+03
12.44;1.01E+05
12.46;-2.38E+05
12.48;2.34E+03
12.5;4.15E+05
12.52;-4.06E+05
12.54;-4.05E+05
12.56;1.10E+06
12.58;-2.19E+05
12.6;-1.82E+05
12.62;2.00E+06
12.64;1.59E+06
12.66;-5.05E+03
12.68;1.51E+06
12.7;7.94E+05
12.72;-9.71E+05
12.74;-6.05E+05
12.76;2.31E+07
12.78;-9.12E+05
12.8;-3.43E+05
12.82;4.68E+06
12.84;2.20E+06
12.86;-1.05E+08
12.88;5.16E+06
12.9;1.47E+08
12.92;-2.23E+08
12.94;-7.42E+06
12.96;4.74E+07
12.98;-2.79E+08
13;-6.25E+07
13.02;1.06E+09
13.04;2.19E+08
13.06;-2.13E+09
13.08;1.46E+09
13.1;2.62E+09
13.12;-4.98E+08
13.14;-4.48E+08
13.16;9.51E+06
13.18;-7.50E+08
13.2;-1.09E+10
13.22;2.33E+09
13.24;-4.55E+07
13.26;-4.22E+09
13.28;3.78E+10
13.3;4.43E+10
13.32;-1.08E+11
13.34;1.34E+09
13.36;1.86E+11
13.38;-1.87E+11
13.4;-1.77E+10
13.42;4.99E+10
13.44;-1.12E+11
13.46;-8.16E+10
13.48;9.19E+10
13.5;6.90E+10
13.52;-0.000228824
13.54;7.38E+10
13.56;0.000354739
13.58;-0.000445663
13.6;-0.000259961
13.62;0.001044181
13.64;-0.00043758
13.66;-0.001530389
13.68;0.002141337
13.7;0.000930085
13.72;-0.004737927
13.74;0.002442645
13.76;0.00654395
13.78;-0.010203693
13.8;-0.003060354
13.82;0.021376192
13.84;-0.013102034
13.86;-0.027702576
13.88;0.048255775
13.9;0.008526249
13.92;-0.095888095
13.94;0.068304111
13.96;0.115923702
13.98;-0.226626592
14;-0.014063246
14.02;0.427584742
14.04;-0.348473882
14.06;-0.478517956
14.08;10.573.443.680.634.800
14.1;-0.048443556
14.12;-18.952.345.426.315.100
14.14;1.746.669.354.479.730
14.16;19.475.639.216.859.800
14.18;-490.740.904.017.023
14.2;0.705423205
14.22;8.448.113.803.106.160
14.24;-8.722.490.888.393.390
14.26;-8.301.534.878.027.980
14.28;2.467.878.759.142.360
14.3;-6.321.953.202.175.580
14.32;-53.377.490.995.666.100
14.34;11.053.007.749.278.100
14.36;4.331.043.896.580.600
14.38;5.889.096.980.889.230
14.4;5.394.895.954.978.790
14.42;5.133.620.506.931.850
14.44;5.477.727.757.860.110
14.46;545.393.397.972.285
14.48;5.284.995.021.596.390
14.5;5.386.302.661.908.170
14.52;5.434.899.405.717.560
14.54;5.343.258.574.402.950
14.56;5.341.819.530.839.160
14.58;5.379.877.967.581.360
14.6;5.348.261.665.191.330
14.62;532.757.256.352.798
14.64;5.360.441.224.635.940
14.66;5.399.664.981.957.240
14.68;5.440.104.664.991.220
14.7;5.489.872.688.495.050
14.72;5.518.395.716.993.640
14.74;5.506.306.465.216.310
14.76;5.463.295.189.509.770
14.78;5.406.143.041.479.910
14.8;5.369.210.105.029.860
14.82;5.365.516.765.311.810
14.84;5.343.486.192.472.680
14.86;5.302.538.297.644.670
14.88;5.316.705.362.746.620
14.9;5.331.358.418.001.410
14.92;5.278.121.341.466.510
14.94;5.321.036.154.699.510
14.96;5.432.793.493.463.770
14.98;5.281.333.558.305.430
15;5.174.088.567.953.140
15.02;5.783.390.058.565.000
15.04;6.490.160.436.836.480
15.06;6.101.768.228.429.540
15.08;5.124.821.384.411.100
15.1;4.892.829.552.928.340
15.12;5.275.755.011.535.180
15.14;5.418.905.506.326.040
15.16;5.353.439.984.658.440
15.18;5.405.077.736.940.180
15.2;5.448.500.350.645.630
15.22;5.401.906.529.584.750
15.24;540.192.634.135.339
15.26;5.454.570.711.044.400
15.28;548.502.452.041.804
15.3;5.503.975.962.532.300
15.32;5.528.366.202.846.510
15.34;555.103.421.297.543
15.36;5.580.769.631.930.190
15.38;5.616.625.002.481.460
15.4;5.649.404.248.596.720
15.42;5.686.041.053.508.630
15.44;5.726.026.408.862.190
15.46;5.756.419.261.260.730
15.48;5.771.856.495.629.080
15.5;576.101.892.770.808
15.52;5.712.251.237.597.230
15.54;5.644.481.489.967.690
15.56;5.578.029.561.228.780
15.58;5.503.844.653.535.450
15.6;5.426.888.504.310.700
15.62;5.381.404.859.442.210
15.64;5.378.120.026.708.560
15.66;5.389.627.634.033.550
15.68;5.393.998.479.646.120
15.7;5.394.180.865.703.650
15.72;5.394.866.559.829.320
15.74;5.399.776.903.865.350
15.76;5.418.374.344.524.110
15.78;5.432.364.224.263.550
15.8;5.415.391.804.033.120
15.82;5.404.400.443.578.760
15.84;5.435.284.040.689.860
15.86;5.453.988.620.725.860
15.88;5.421.900.325.961.870
15.9;5.395.815.641.086.780
15.92;5.416.216.105.254.260
15.94;5.442.114.788.497.830
15.96;5.427.874.991.660.070
15.98;5.392.229.833.630.850
16;5.390.478.237.228.010
16.02;5.423.249.267.446.150
16.04;543.515.843.527.313
16.06;5.416.765.660.411.810
16.08;539.779.326.207.027
16.1;5.372.441.601.086.030
16.12;534.734.030.384.991
16.14;5.364.094.447.617.280
16.16;5.405.572.106.098.560
16.18;5.414.032.091.770.460
16.2;5.403.415.857.405.930
16.22;5.433.353.063.434.360
16.24;5.508.666.477.999.010
16.26;5.577.803.276.879.850
16.28;5.596.872.562.251.110
16.3;5.558.393.923.268.690
16.32;5.476.105.413.120.980
16.34;5.391.271.552.021.080
16.36;5.367.338.262.126.090
16.38;5.393.620.539.197.690
16.4;5.387.782.441.490.570
16.42;536.555.416.563.463
16.44;5.385.018.938.678.160
16.46;5.375.938.455.079.530
16.48;5.347.971.907.359.510
16.5;5.421.825.022.234.360
16.52;5.422.824.632.344.980
16.54;5.256.729.830.651.060
16.56;5.499.247.617.743.000
16.58;6.284.918.017.842.300
16.6;6.495.578.701.346.940
16.62;5.635.076.706.928.570
16.64;4.902.811.544.056.060
16.66;50.833.969.897.520.900
16.68;5.444.703.615.656.210
16.7;5.433.205.793.493.210
16.72;5.399.692.934.439.760
16.74;551.319.981.693.478
16.76;5.530.625.250.731.560
16.78;545.227.781.594.742
16.8;5.466.799.639.698.530
16.82;5.541.466.077.272.710
16.84;5.555.173.868.834.740
16.86;5.552.204.717.170.940
16.88;5.595.278.720.438.380
16.9;5.620.208.037.185.080
16.92;5.594.874.288.935.120
16.94;5.593.530.464.134.240
16.96;5.647.296.655.639.720
16.98;5.709.990.941.709.040
17;5.752.351.183.294.780
17.02;5.768.983.412.384.850
17.04;5.756.775.812.333.800
17.06;5.726.585.486.805.740
17.08;5.682.887.625.732.550
17.1;5.616.205.001.196.370
17.12;5.534.831.125.574.970
17.14;5.462.671.911.643.410
17.16;5.412.184.581.548.550
17.18;5.384.596.230.599.960
17.2;5.380.127.869.188.710
17.22;5.385.367.463.116.280
17.24;5.366.169.624.102.080
17.26;5.315.376.776.362.370
17.28;5.283.500.793.955.460
17.3;5.301.177.445.486.570
17.32;5.324.737.156.119.310
17.34;5.322.213.107.242.530
17.36;5.328.096.214.239.750
17.38;5.360.427.202.260.360
17.4;5.376.897.010.357.970
17.42;5.350.916.257.329.700
17.44;5.317.713.987.693.290
17.46;5.315.525.283.764.470
17.48;5.329.277.287.724.850
17.5;5.330.624.501.239.130
17.52;5.332.978.576.861.330
17.54;534.449.088.919.974
17.56;5.327.895.907.580.900
17.58;5.286.317.658.933.840
17.6;528.085.701.462.158
17.62;530.584.205.356.211
17.64;5.306.177.956.640.940
17.66;5.301.520.511.980.090
17.68;5.317.158.469.266.750
17.7;5.307.650.741.160.620
17.72;5.278.105.023.266.320
17.74;5.299.625.837.286.510
17.76;5.369.266.419.325.390
17.78;5.425.689.502.959.470
17.8;5.453.259.113.710.150
17.82;546.373.226.617.964
17.84;5.446.586.458.257.680
17.86;5.393.715.086.083.580
17.88;5.345.645.404.746.880
17.9;5.343.303.090.532.030
17.92;5.330.189.174.991.900
17.94;5.261.793.594.748.930
17.96;5.242.937.842.963.210
17.98;5.289.382.512.921.030
18;5.247.243.088.938.280
18.02;5.206.515.607.626.230
18.04;5.337.067.092.207.420
18.06;5.347.586.619.722.140
18.08;5.164.697.584.678.790
18.1;5.467.527.009.911.810
18.12;6.240.290.186.090.660
18.14;6.293.325.738.194.520
18.16;5.398.156.324.408.140
18.18;4.795.145.366.856.760
18.2;4.985.671.636.378.860
18.22;5.255.579.916.807.240
18.24;5.279.768.868.199.870
18.26;533.413.500.748.554
18.28;5.437.959.143.213.020
18.3;5.453.560.973.282.340
18.32;5.458.172.832.558.680
18.34;5.518.567.251.173.400
18.36;5.547.336.488.091.120
18.38;5.501.680.668.585.210
18.4;5.450.216.436.357.390
18.42;5.451.171.395.079.060
18.44;5.492.568.755.111.620
18.46;5.522.897.787.053.910
18.48;5.513.002.199.382.280
18.5;5.505.382.131.514.780
18.52;555.040.791.549.771
18.54;5.610.806.368.298.570
18.56;5.630.606.894.302.700
18.58;5.622.567.164.582.730
18.6;5.593.925.870.877.230
18.62;5.517.118.341.405.070
18.64;5.416.619.826.562.480
18.66;5.351.951.662.523.720
18.68;5.326.167.628.260.690
18.7;5.298.005.439.120.010
18.72;5.254.900.059.149.250
18.74;5.225.224.053.058.570
18.76;5.224.448.187.163.490
18.78;5.232.085.984.016.080
18.8;5.237.273.747.237.500
18.82;5.248.538.150.443.680
18.84;525.610.497.518.391
18.86;5.255.446.557.783.180
18.88;527.238.549.363.193
18.9;5.306.288.566.100.680
18.92;5.321.198.494.816.880
18.94;5.314.536.359.509.110
18.96;5.312.916.391.472.270
18.98;532.371.756.540.465
19;5.339.651.201.116.170
19.02;5.345.690.634.940.550
19.04;5.329.918.259.995.550
19.06;5.301.982.885.884.880
19.08;5.260.806.244.242.000
19.1;5.214.083.603.078.800
19.12;5.236.949.807.159.350
19.14;5.357.881.669.129.990
19.16;5.467.630.010.544.550
19.18;5.502.082.944.686.280
19.2;5.528.060.545.176.500
19.22;555.638.999.791.999
19.24;5.523.188.940.463.330
19.26;5.460.439.453.566.200
19.28;544.727.489.198.326
19.3;5.459.961.035.078.840
19.32;5.446.287.333.431.970
19.34;544.684.382.414.715
19.36;5.503.575.525.375.130
19.38;5.535.626.920.959.590
19.4;5.490.995.870.875.600
19.42;5.517.629.282.527.250
19.44;5.628.063.217.183.960
19.46;5.528.741.976.203.410
19.48;5.390.316.473.944.240
19.5;5.870.660.452.437.170
19.52;6.618.130.306.924.570
19.54;6.441.988.708.482.350
19.56;5.509.210.968.463.000
19.58;5.129.443.105.499.570
19.6;5.445.237.893.087.390
19.62;5.621.453.272.489.780
19.64;5.560.981.920.187.670
19.66;5.613.766.056.596.380
19.68;5.671.999.791.896.800
19.7;5.622.747.615.519.270
19.72;5.665.042.691.108.530
19.74;5.795.166.163.330.730
19.76;5.798.890.486.128.940
19.78;5.726.610.539.278.210
19.8;5.768.396.496.119.370
19.82;5.867.529.378.492.850
19.84;5.887.000.958.009.700
19.86;5.874.804.520.087.940
19.88;5.901.453.821.627.340
19.9;5.925.533.838.613.070
19.92;5.919.119.951.123.830
19.94;590.675.867.982.244
19.96;5.896.885.369.555.440
19.98;5.873.057.537.024.190
20;5.818.162.203.864.300
20.02;5.740.143.167.740.580
20.04;5.657.528.776.010.740
20.06;55.730.485.191.022
20.08;5.510.583.839.522.730
20.1;5.488.100.485.828.140
20.12;5.467.699.401.264.800
20.14;5.461.787.946.397.770
20.16;5.516.617.486.335.300
20.18;5.539.667.318.484.320
20.2;5.458.467.721.616.420
20.22;5.411.796.446.947.570
20.24;5.464.708.200.177.910
20.26;547.697.641.293.747
20.28;5.430.986.542.467.920
20.3;5.449.381.221.274.040
20.32;5.497.801.444.130.130
20.34;5.475.767.616.551.380
20.36;5.445.945.422.931.560
20.38;5.466.342.607.861.770
20.4;5.466.281.257.364.140
20.42;5.472.658.442.262.480
20.44;5.557.431.020.039.220
20.46;5.565.117.377.715.610
20.48;5.406.589.166.745.230
20.5;5.341.270.663.641.020
20.52;547.677.253.969.066
20.54;5.559.999.816.897.880
20.56;5.534.180.622.713.710
20.58;5.565.209.206.778.020
20.6;5.577.678.622.280.420
20.62;545.935.539.961.594
20.64;5.381.056.937.985.260
20.66;5.424.413.955.453.340
20.68;5.387.921.364.560.060
20.7;5.246.941.197.847.890
20.72;525.244.142.149.126
20.74;5.383.034.675.719.910
20.76;5.333.913.100.125.200
20.78;5.187.682.167.255.130
20.8;5.256.579.123.171.420
20.82;53.136.054.401.385
20.84;5.142.941.767.410.980
20.86;5.340.756.743.799.910
20.88;6.103.888.628.085.450
20.9;6.362.426.931.570.330
20.92;5.603.386.265.477.420
20.94;48.755.096.349.188.600
20.96;49.159.474.519.864.900
20.98;5.200.237.433.355.600
21;5.272.587.644.971.220
21.02;5.295.505.511.066.830
21.04;5.353.081.030.231.020
21.06;5.350.902.125.588.850
21.08;5.331.964.367.164.650
21.1;5.377.860.159.816.300
21.12;5.440.887.493.984.500
21.14;5.429.466.376.532.350
21.16;5.359.092.643.221.830
21.18;5.336.957.268.860.870
21.2;5.393.866.395.759.290
21.22;5.462.031.776.844.050
21.24;5.510.709.369.191.060
21.26;5.549.218.465.232.320
21.28;5.568.862.859.765.710
21.3;5.576.821.073.378.130
21.32;5.590.732.135.304.810
21.34;5.595.530.272.002.910
21.36;556.513.549.091.831
21.38;5.498.909.910.844.260
21.4;5.426.812.685.619.990
21.42;5.373.800.798.207.060
21.44;5.329.591.382.148.680
21.46;5.294.237.465.869.360
21.48;5.294.960.568.483.690
21.5;5.320.873.541.325.660
21.52;5.327.615.660.564.800
21.54;5.307.709.261.083.550
21.56;5.290.541.353.751.830
21.58;5.292.193.482.783.220
21.6;5.296.824.276.140.860
21.62;5.289.727.564.703.920
21.64;5.291.354.973.681.000
21.66;531.912.920.665.176
21.68;5.333.630.427.964.260
21.7;528.928.572.283.424
21.72;5.229.726.248.117.130
21.74;5.239.188.075.534.160
21.76;529.451.814.509.508
21.78;5.307.066.551.338.230
21.8;5.293.092.947.953.750
21.82;5.304.854.925.455.780
21.84;528.995.281.393.376
21.86;522.941.199.279.069
21.88;5.228.812.629.912.340
21.9;5.325.427.634.395.880
21.92;541.503.529.901.985
21.94;5.419.753.710.692.180
21.96;5.376.323.429.654.120
21.98;534.959.023.703.271
22;533.849.058.458.923
22.02;5.319.087.267.286.470
22.04;530.270.047.135.688
22.06;5.263.383.741.262.780
22.08;5.183.562.942.766.190
22.1;5.167.036.841.461.290
22.12;5.221.696.954.445.430
22.14;520.877.812.800.963
22.16;5.211.095.538.622.230
22.18;5.301.310.707.758.870
22.2;5.216.115.852.152.140
22.22;5.145.430.672.795.310
22.24;5.699.294.547.065.490
22.26;6.352.155.250.475.520
22.28;5.966.111.395.120.390
22.3;49.932.774.269.262.800
22.32;47.340.038.693.462.700
22.34;512.323.198.830.951
22.36;5.337.608.139.048.160
22.38;529.872.147.738.562
22.4;528.499.378.187.538
22.42;5.307.953.791.272.120
22.44;5.333.917.679.690.280
22.46;5.369.630.918.911.050
22.48;5.386.510.972.868.340
22.5;5.390.116.679.461.810
22.52;5.388.404.685.235.370
22.54;5.371.986.899.611.890
22.56;5.383.276.751.362.210
22.58;5.439.741.569.121.730
22.6;5.489.456.919.851.320
22.62;5.533.881.290.167.370
22.64;5.597.425.898.302.820
22.66;5.631.244.107.067.270
22.68;5.630.130.768.615.900
22.7;5.647.553.622.793.350
22.72;563.760.890.910.526
22.74;5.548.698.507.404.170
22.76;546.533.630.300.207
22.78;5.436.960.744.478.230
22.8;5.394.236.732.305.820
22.82;5.325.617.626.031.290
22.84;5.290.615.628.371.120
22.86;5.291.721.870.892.970
22.88;5.294.646.261.938.920
22.9;5.287.593.911.082.520
22.92;527.767.624.812.588
22.94;5.283.463.507.571.830
22.96;5.303.929.767.730.890
22.98;5.316.547.371.231.360
23;532.545.704.488.695
23.02;534.600.657.615.377
23.04;5.366.494.751.735.440
23.06;5.369.794.215.303.360
23.08;5.353.188.217.852.110
23.1;5.330.122.241.042.760
23.12;5.323.041.867.900.430
23.14;5.333.230.759.619.610
23.16;5.344.678.736.270.730
23.18;535.680.172.840.137
23.2;5.376.927.674.066.510
23.22;5.415.517.600.867.160
23.24;5.485.300.564.036.700
23.26;5.544.848.125.276.780
23.28;552.174.938.727.569
23.3;543.488.662.894.925
23.32;5.356.188.628.138.820
23.34;5.300.749.498.776.810
23.36;527.459.853.399.309
23.38;5.277.128.568.174.020
23.4;5.271.056.217.119.320
23.42;5.277.617.114.178.550
23.44;5.295.968.672.955.700
23.46;5.246.765.819.240.560
23.48;5.230.610.311.367.740
23.5;531.715.075.092.967
23.52;5.227.161.676.464.850
23.54;5.100.583.264.415.420
23.56;5.597.944.761.219.190
23.58;6.338.381.902.279.930
23.6;6.136.948.991.905.130
23.62;5.227.215.571.651.290
23.64;4.876.290.433.257.140
23.66;5.167.101.937.344.490
23.68;5.338.069.344.525.200
23.7;5.296.901.901.319.090
23.72;531.613.799.836.176
23.74;5.364.254.387.543.870
23.76;5.381.101.808.031.600
23.78;5.404.962.022.266.190
23.8;5.413.060.107.026.880
23.82;541.747.823.034.767
23.84;5.467.820.367.141.510
23.86;5.513.240.806.093.370
23.88;5.506.461.032.337.300
23.9;5.507.033.241.249.960
23.92;55.564.151.886.785
23.94;5.621.099.733.368.890
23.96;5.662.714.982.471.230
23.98;5.668.974.444.421.040
24;5.667.504.539.838.280
24.02;5.686.904.007.876.830
24.04;568.146.209.607.123
24.06;5.610.763.470.827.030
24.08;5.537.346.410.338.260
24.1;5.504.551.871.472.730
24.12;5.458.347.964.751.130
24.14;5.390.033.989.173.090
24.16;536.360.235.933.357
24.18;5.373.058.744.988.630
24.2;5.357.972.069.817.610
24.22;5.320.553.521.638.100
24.24;530.437.189.560.977
24.26;5.329.596.736.646.730
24.28;5.381.984.674.954.820
24.3;5.412.051.699.832.550
24.32;5.394.470.524.729.160
24.34;5.383.044.306.396.520
24.36;5.409.221.499.283.260
24.38;5.412.099.342.183.010
24.4;5.382.585.905.422.860
24.42;5.406.011.396.171.270
24.44;5.461.001.408.208.170
24.46;5.426.652.571.645.310
24.48;5.341.106.406.186.320
24.5;5.347.144.610.610.440
24.52;542.053.350.364.801
24.54;5.459.332.996.713.930
24.56;5.492.161.337.095.730
24.58;5.558.110.318.629.910
24.6;559.617.310.983.903
24.62;5.563.409.709.478.080
24.64;5.483.047.027.056.700
24.66;5.413.810.401.071.450
24.68;5.413.396.134.723.110
24.7;5.431.851.990.381.640
24.72;5.399.638.335.577.110
24.74;5.404.191.775.710.480
24.76;5.456.421.698.902.700
24.78;5.407.043.502.876.620
24.8;5.367.761.601.539.750
24.82;5.482.170.018.147.970
24.84;543.740.975.606.645
24.86;5.270.503.670.011.300
24.88;5.690.470.543.979.800
24.9;6.469.689.395.832.700
24.92;6.370.402.893.639.180
24.94;5.441.122.534.063.600
24.96;5.000.477.294.617.700
24.98;5.291.363.768.720.440
25;5.496.115.363.798.640
25.02;5.427.766.903.467.260
25.04;5.418.483.986.092.700
25.06;5.474.951.920.479.980
25.08;5.500.925.841.581.450
25.1;5.539.659.895.223.310
25.12;5.574.979.266.604.830
25.14;5.576.651.855.471.840
25.16;5.578.170.399.056.260
25.18;5.580.340.559.202.740
25.2;5.590.490.133.441.710
25.22;5.641.336.415.579.160
25.24;569.919.563.363.728
25.26;5.735.795.197.567.080
25.28;578.788.944.364.381
25.3;5.844.401.368.580.160
25.32;5.863.981.922.209.450
25.34;5.865.867.376.033.740
25.36;5.852.657.546.324.320
25.38;5.792.865.846.102.000
25.4;5.719.404.319.188.990
25.42;5.667.048.589.654.110
25.44;5.596.899.538.762.040
25.46;5.514.976.254.309.290
25.48;5.485.372.393.832.080
25.5;5.479.144.048.788.670
25.52;543.059.406.614.988
25.54;5.388.816.311.390.290
25.56;5.403.452.946.354.090
25.58;5.402.228.959.749.310
25.6;5.350.005.200.146.180
25.62;5.335.590.745.667.110
25.64;5.389.595.372.561.780
25.66;5.425.613.638.944.990
25.68;5.408.084.882.723.620
25.7;5.384.198.519.252.600
25.72;5.374.970.017.715.980
25.74;5.378.083.345.701.870
25.76;5.386.612.678.765.840
25.78;5.360.944.920.107.050
25.8;5.314.216.626.617.890
25.82;5.335.103.609.939.490
25.84;5.411.425.016.374.630
25.86;5.440.331.629.769.570
25.88;5.437.644.965.070.020
25.9;5.475.872.870.938.610
25.92;5.509.930.772.078.600
25.94;548.399.718.840.794
25.96;5.430.506.764.171.810
25.98;5.369.647.681.849.040
26;5.315.463.899.411.200
26.02;5.310.929.351.095.110
26.04;5.312.086.761.139.270
26.06;5.259.662.159.499.780
26.08;5.235.210.748.999.210
26.1;5.251.940.311.922.880
26.12;5.206.753.045.934.040
26.14;5.203.690.728.968.680
26.16;5.292.798.886.093.250
26.18;5.194.586.136.693.610
26.2;51.044.180.095.719.700
26.22;5.653.307.053.383.340
26.24;6.356.046.315.971.850
26.26;6.052.227.752.913.850
26.28;5.101.950.275.043.030
26.3;4.793.918.295.061.110
26.32;5.128.043.037.764.290
26.34;5.300.802.819.537.470
26.36;5.244.133.061.129.150
26.38;5.258.105.694.379.330
26.4;5.311.980.777.605.170
26.42;5.327.058.356.900.380
26.44;5.340.311.547.977.380
26.46;5.350.215.027.799.680
26.48;535.709.064.014.093
26.5;5.380.798.544.866.340
26.52;5.397.748.299.566.150
26.54;5.403.074.105.096.770
26.56;5.434.545.286.583.550
26.58;54.887.326.387.284
26.6;5.527.578.512.671.590
26.62;5.552.095.871.596.340
26.64;5.590.199.226.128.010
26.66;5.631.777.294.053.050
26.68;5.635.673.448.097.370
26.7;559.814.309.311.326
26.72;5.547.258.780.341.890
26.74;5.486.913.180.971.610
26.76;5.417.570.214.147.940
26.78;5.356.066.423.699.840
26.8;5.302.579.942.407.950
26.82;5.262.923.006.912.390
26.84;5.260.874.627.240.950
26.86;5.271.323.338.092.210
26.88;5.246.143.369.237.020
26.9;5.218.316.954.940.930
26.92;5.240.254.490.541.970
26.94;5.264.254.355.155.220
26.96;5.244.378.631.257.730
26.98;5.243.349.430.603.890
27;5.285.456.942.876.430
27.02;5.294.424.748.317.180
27.04;5.266.103.000.420.910
27.06;5.264.241.344.163.050
27.08;5.277.907.942.695.240
27.1;5.284.830.114.110.320
27.12;5.302.848.507.915.190
27.14;5.306.250.436.333.410
27.16;5.279.612.952.187.750
27.18;5.268.051.152.814.350
27.2;5.266.999.638.937.060
27.22;5.247.014.925.874.630
27.24;5.250.295.027.304.290
27.26;5.292.761.817.997.410
27.28;5.328.698.520.266.300
27.3;5.369.427.543.725.390
27.32;5.426.927.146.841.680
27.34;541.727.215.316.505
27.36;5.313.813.948.411.050
27.38;5.233.908.484.720.870
27.4;5.237.564.844.686.860
27.42;5.232.821.275.120.360
27.44;5.178.466.322.088.890
27.46;5.173.672.296.749.480
27.48;5.231.289.970.535.460
27.5;5.229.674.338.339.220
27.52;5.214.755.350.862.720
27.54;5.293.008.279.812.810
27.56;524.854.880.315.491
27.58;50.595.421.057.850.000
27.6;5.336.971.950.908.250
27.62;6.110.379.482.670.750
27.64;6.271.418.907.109.120
27.66;5.444.390.818.840.180
27.68;47.563.151.590.124.000
27.7;4.879.920.366.981.570
27.72;5.198.968.853.037.220
27.74;5.229.983.681.407.340
27.76;5.195.506.375.849.370
27.78;5.259.388.145.136.090
27.8;5.308.382.699.765.180
27.82;5.299.140.776.981.170
27.84;529.255.393.612.704
27.86;5.309.881.259.580.570
27.88;533.782.938.248.192
27.9;5.375.315.811.480.300
27.92;5.419.121.583.065.840
27.94;5.457.250.645.808.070
27.96;5.489.128.729.791.250
27.98;5.520.621.586.473.110
28;5.549.735.851.835.700
28.02;5.574.943.438.777.880
28.04;560.587.233.915.166
28.06;5.649.605.389.433.750
28.08;5.676.386.012.312.580
28.1;5.638.984.744.690.400
28.12;5.552.363.514.236.830
28.14;5.477.597.692.948.090
28.16;5.425.608.526.157.250
28.18;5.376.742.870.058.350
28.2;5.341.999.351.593.990
28.22;5.320.015.531.976.900
28.24;5.291.085.292.529.220
28.26;5.281.351.915.728.790
28.28;5.316.473.448.114.120
28.3;5.347.445.909.112.210
28.32;533.431.770.148.003
28.34;5.325.328.871.154.630
28.36;5.358.342.546.964.490
28.38;5.384.001.471.626.540
28.4;5.366.617.874.750.690
28.42;5.357.382.408.797.550
28.44;5.397.684.073.202.280
28.46;5.439.325.663.459.100
28.48;542.412.647.893.826
28.5;5.382.670.925.133.290
28.52;5.381.663.730.900.100
28.54;5.401.162.529.865.090
28.56;537.501.176.742.262
28.58;5.340.363.513.777.050
28.6;5.386.316.046.195.430
28.62;5.480.869.080.842.630
28.64;5.519.968.313.584.190
28.66;548.493.229.047.651
28.68;5.423.490.461.008.520
28.7;536.489.250.342.644
28.72;5.323.353.642.314.350
28.74;5.304.360.788.014.830
28.76;5.285.736.675.884.330
28.78;5.262.604.645.031.140
28.8;5.282.964.151.796.450
28.82;53.303.180.895.004
28.84;5.294.392.043.027.500
28.86;5.229.127.526.233.780
28.88;5.299.236.368.862.930
28.9;5.330.806.121.306.390
28.92;5.155.747.296.244.070
28.94;5.291.964.017.486.630
28.96;6.026.414.012.648.410
28.98;640.474.963.660.447
29;5.732.396.540.255.890
29.02;4.934.336.890.850.440
29.04;4.930.252.647.624.410
29.06;5.260.362.928.541.300
29.08;5.323.986.442.153.560
29.1;5.288.356.542.776.140
29.12;5.345.711.085.250.030
29.14;5.389.233.661.443.010
29.16;5.399.457.911.971.970
29.18;5.421.738.472.573.530
29.2;5.426.536.144.334.540
29.22;5.437.060.539.365.130
29.24;5.495.101.049.040.630
29.26;5.538.900.561.013.280
29.28;5.530.987.292.508.320
29.3;5.539.620.592.218.460
29.32;5.593.527.254.566.480
29.34;564.527.893.808.206
29.36;5.674.298.824.050.350
29.38;5.685.824.368.132.140
29.4;5.680.732.368.215.160
29.42;5.682.996.509.627.990
29.44;5.694.570.959.921.820
29.46;5.658.514.226.803.520
29.48;5.572.212.572.806.350
29.5;5.508.894.097.194.570
29.52;5.462.664.968.655.870
29.54;5.400.828.464.259.090
29.56;5.406.815.356.027.290
29.58;5.471.839.337.165.430
29.6;5.436.609.784.792.650
29.62;5.394.185.595.132.550
29.64;5.596.012.170.584.250
29.66;5.886.496.259.436.760
29.68;5.916.530.861.879.120
29.7;5.741.815.064.982.660
29.72;5.617.105.699.134.190
29.74;5.560.365.619.502.800
29.76;5.495.312.989.107.790
29.78;5.447.191.884.288.260
29.8;5.431.159.144.751.420
29.82;5.410.377.211.585.160
29.84;5.391.923.205.287.320
29.86;5.404.871.338.623.150
29.88;541.629.775.286.206
29.9;5.385.667.605.619.330
29.92;5.348.348.229.555.300
29.94;5.351.213.692.825.660
29.96;5.379.253.801.482.760
29.98;5.405.352.004.806.880
30;5.437.415.532.290.220
30.02;5.494.391.779.384.010
30.04;5.563.389.636.025.300
30.06;5.585.442.931.047.780
30.08;55.282.429.942.502
30.1;5.449.328.633.501.070
30.12;5.408.987.680.101.540
30.14;5.386.590.300.084.450
30.16;5.345.976.748.354.150
30.18;531.314.994.847.726
30.2;5.335.492.976.465.300
30.22;5.360.726.012.448.300
30.24;5.291.396.647.961.090
30.26;5.235.898.731.822.580
30.28;532.316.782.625.903
30.3;5.303.129.661.642.010
30.32;511.933.879.158.107
30.34;5.399.377.105.856.750
30.36;6.181.106.817.515.900
30.38;6.322.546.757.291.090
30.4;5.473.393.805.802.330
30.42;48.223.943.990.152.700
30.44;4.991.924.974.678.160
30.46;529.428.300.229.739
30.48;5.302.111.520.266.410
30.5;5.277.157.274.502.670
30.52;5.324.409.018.313.750
30.54;5.337.899.203.253.740
30.56;5.334.827.890.876.060
30.58;5.352.648.956.740.620
30.6;537.372.791.597.241
30.62;5.396.268.414.161.220
30.64;541.953.784.420.544
30.66;5.445.136.390.669.680
30.68;5.486.768.273.235.870
30.7;552.900.179.035.384
30.72;5.552.079.747.588.710
30.74;5.577.391.138.554.900
30.76;5.620.107.683.097.740
30.78;5.653.438.404.917.980
30.8;5.653.194.490.356.890
30.82;5.634.240.620.464.380
30.84;5.626.509.165.788.110
30.86;5.615.708.052.008.940
30.88;5.552.229.597.978.490
30.9;5.450.220.366.325.850
30.92;5.383.731.804.675.060
30.94;5.370.977.156.979.780
30.96;5.370.814.805.642.480
30.98;5.353.629.221.804.980
31;5.316.102.436.499.850
31.02;528.635.752.577.236
31.04;5.293.641.968.377.790
31.06;5.321.821.074.370.730
31.08;5.355.186.092.349.930
31.1;5.400.152.112.042.550
31.12;5.427.057.132.443.950
31.14;5.405.441.428.139.700
31.16;5.376.630.885.425.590
31.18;5.396.593.035.412.320
31.2;5.451.944.123.075.700
31.22;5.482.658.575.654.150
31.24;5.466.803.740.032.150
31.26;5.446.160.825.056.290
31.28;5.445.750.270.023.170
31.3;5.433.465.365.824.230
31.32;5.403.906.131.525.450
31.34;5.398.476.382.216.880
31.36;5.411.046.982.163.940
31.38;5.395.203.102.266.210
31.4;5.363.074.870.724.900
31.42;5.360.438.709.155.960
31.44;5.382.688.851.797.850
31.46;5.412.936.042.924.740
31.48;5.466.622.551.258.410
31.5;5.528.932.732.531.510
31.52;5.548.270.345.531.140
31.54;5.514.100.021.062.730
31.56;5.449.853.945.614.450
31.58;5.374.642.019.255.700
31.6;5.323.919.861.603.690
31.62;5.311.935.050.798.860
31.64;5.301.907.594.187.700
31.66;5.299.384.229.182.920
31.68;532.440.721.354.508
31.7;5.310.633.051.164.940
31.72;5.281.763.951.929.020
31.74;5.349.507.180.194.280
31.76;5.343.134.717.762.880
31.78;5.162.793.319.314.340
31.8;5.360.151.958.910.600
31.82;6.129.103.820.952.100
31.84;6.441.085.143.868.520
31.86;5.705.784.933.878.350
31.88;4.937.011.303.575.920
31.9;49.624.930.736.281.500
31.92;5.269.210.358.776.790
31.94;5.345.322.626.842.080
31.96;5.369.281.922.439.580
31.98;543.874.417.837.555
32;5.438.964.457.496.920
32.02;5.425.617.269.787.980
32.04;5.466.183.378.245.310
32.06;5.483.937.710.220.240
32.08;5.460.925.474.822.480
32.1;5.473.415.969.821.910
32.12;5.530.709.577.534.510
32.14;557.490.255.310.219
32.16;5.591.754.704.282.780
32.18;561.854.076.924.665
32.2;5.673.785.446.092.120
32.22;5.733.605.294.453.090
32.24;5.765.594.126.976.830
32.26;5.760.754.631.235.130
32.28;5.739.625.483.724.850
32.3;5.727.139.637.882.960
32.32;5.713.973.074.811.600
32.34;5.668.328.153.942.820
32.36;5.588.912.242.874.960
32.38;5.510.638.725.574.500
32.4;5.463.298.806.930.130
32.42;5.442.694.406.345.550
32.44;5.417.607.397.469.050
32.46;5.377.457.931.749.260
32.48;5.352.330.191.685.080
32.5;5.351.678.512.996.270
32.52;5.342.093.889.599.300
32.54;5.316.337.787.237.580
32.56;5.301.974.746.847.610
32.58;529.989.607.589.624
32.6;5.298.449.333.091.810
32.62;5.313.190.193.943.350
32.64;5.340.213.190.123.420
32.66;5.342.641.507.348.320
32.68;5.330.462.180.609.010
32.7;5.342.864.559.140.300
32.72;5.355.535.749.676.380
32.74;533.706.066.080.512
32.76;5.322.695.211.108.660
32.78;5.340.840.305.262.950
32.8;5.387.542.061.885.550
32.82;5.445.370.895.908.570
32.84;5.433.681.548.950.730
32.86;531.212.492.651.199
32.88;5.215.473.045.988.940
32.9;5.245.080.138.930.680
32.92;5.296.779.720.606.650
32.94;5.295.493.183.487.660
32.96;5.322.894.254.368.580
32.98;5.412.142.053.912.960
33;5.493.241.777.855.230
33.02;5.536.162.020.696.730
33.04;5.547.621.051.807.910
33.06;550.751.089.520.227
33.08;542.621.413.214.509
33.1;536.301.468.722.932
33.12;5.331.249.098.159.940
33.14;5.284.523.444.006.990
33.16;5.234.611.431.522.520
33.18;5.248.077.792.908.690
33.2;5.270.044.252.419.850
33.22;5.209.829.499.423.040
33.24;5.213.117.299.019.050
33.26;5.350.926.143.926.300
33.28;5.293.062.557.195.130
33.3;50.944.026.563.002.400
33.32;5.468.731.067.971.920
33.34;6.266.036.422.227.910
33.36;6.259.452.302.288.310
33.38;5.342.293.617.142.540
33.4;48.031.455.619.447.000
33.42;50.534.221.328.892.000
33.44;5.314.708.759.972.210
33.46;5.290.206.272.678.190
33.48;5.300.041.436.102.800
33.5;5.365.597.491.596.200
33.52;5.327.930.630.376.600
33.54;5.292.579.419.481.790
33.56;5.404.155.936.480.800
33.58;5.574.287.613.593.630
33.6;5.651.694.116.112.290
33.62;5.631.889.669.687.360
33.64;5.593.007.338.967.150
33.66;5.576.010.990.338.380
33.68;5.584.687.794.778.510
33.7;5.601.782.279.009.120
33.72;5.616.308.135.314.260
33.74;5.646.875.519.372.790
33.76;5.674.692.768.182.390
33.78;5.657.620.912.760.300
33.8;5.631.212.091.941.200
33.82;5.621.630.889.226.150
33.84;5.569.564.868.111.680
33.86;5.478.825.166.182.790
33.88;5.417.939.631.938.040
33.9;5.373.741.549.247.310
33.92;5.322.013.259.987.760
33.94;5.291.486.761.280.310
33.96;52.603.468.327.416
33.98;5.207.856.730.122.600
34;5.202.332.724.750.550
34.02;5.258.986.138.655.350
34.04;5.285.974.636.986.800
34.06;5.256.860.059.371.020
34.08;5.245.386.583.687.290
34.1;5.280.200.189.483.570
34.12;5.314.935.471.335.340
34.14;5.327.454.795.652.370
34.16;5.340.363.755.201.290
34.18;5.350.701.926.086.630
34.2;5.331.738.856.743.200
34.22;5.298.937.233.874.700
34.24;5.291.106.366.155.030
34.26;5.303.707.342.431.970
34.28;530.082.718.551.895
34.3;5.274.873.207.491.750
34.32;5.263.539.078.089.290
34.34;5.301.762.786.864.850
34.36;5.375.561.109.108.830
34.38;5.452.798.130.682.110
34.4;5.516.345.157.255.120
34.42;553.479.442.028.249
34.44;5.485.742.801.585.460
34.46;5.420.744.180.387.570
34.48;5.404.272.351.285.820
34.5;5.412.385.889.261.590
34.52;538.809.694.517.153
34.54;5.353.053.749.672.980
34.56;5.357.801.896.290.400
34.58;534.734.499.236.502
34.6;5.269.535.546.927.760
34.62;5.268.358.622.715.180
34.64;5.368.064.743.996.370
34.66;5.262.024.002.301.210
34.68;509.755.214.966.543
34.7;5.568.983.477.151.570
34.72;6.377.216.717.146.890
34.74;6.282.803.597.336.420
34.76;5.347.187.371.754.760
34.78;4.883.343.730.277.990
34.8;5.145.206.126.262.520
34.82;5.344.139.795.620.470
34.84;5.310.637.757.133.710
34.86;5.347.858.063.208.240
34.88;5.400.902.131.752.050
34.9;5.367.540.697.843.290
34.92;5.367.415.272.497.870
34.94;5.429.847.040.742.870
34.96;5.469.400.691.037.260
34.98;5.465.554.431.741.650
35;5.447.520.448.762.750
35.02;5.454.425.639.173.600
35.04;5.497.841.870.263.220
35.06;5.534.945.940.061.140
35.08;5.561.585.329.255.570
35.1;5.614.534.272.894.540
35.12;5.661.117.517.951.590
35.14;5.668.374.061.323.080
35.16;568.450.271.776.268
35.18;5.711.055.588.382.570
35.2;5.681.145.695.290.170
35.22;5.606.113.574.265.270
35.24;5.543.298.628.243.620
35.26;5.482.008.068.894.250
35.28;5.417.423.965.727.750
35.3;5.396.617.245.344.830
35.32;5.411.284.690.266.750
35.34;5.412.419.245.187.300
35.36;5.403.727.342.211.180
35.38;5.389.163.267.619.420
35.4;5.360.943.306.263.410
35.42;5.361.817.371.575.280
35.44;5.394.751.168.862.960
35.46;5.401.175.318.047.150
35.48;5.412.486.746.904.340
35.5;5.480.293.117.163.090
35.52;5.525.567.148.362.680
35.54;5.497.728.831.392.060
35.56;5.475.205.744.454.080
35.58;548.505.465.163.762
35.6;5.482.689.300.661.770
35.62;5.475.669.366.966.010
35.64;5.474.495.584.352.650
35.66;54.602.507.967.832
35.68;5.451.445.434.595.800
35.7;5.474.796.729.061.670
35.72;55.360.055.302.199
35.74;5.626.849.707.441.820
35.76;567.943.135.698.846
35.78;5.634.342.393.919.750
35.8;5.548.962.907.490.450
35.82;5.491.495.846.801.220
35.84;5.449.857.007.723.250
35.86;5.410.222.817.184.760
35.88;5.376.175.204.248.370
35.9;5.354.728.771.541.160
35.92;5.353.007.883.134.390
35.94;5.323.803.343.757.120
35.96;5.281.534.703.045.310
35.98;5.345.872.006.458.240
36;5.387.778.272.395.140
36.02;5.222.748.584.908.770
36.04;5.310.158.738.997.000
36.06;6.022.226.863.700.870
36.08;6.475.065.812.849.340
36.1;5.840.703.124.423.070
36.12;4.977.506.565.894.960
36.14;4.957.638.016.387.620
36.16;5.365.967.625.614.190
36.18;5.448.246.693.008.570
36.2;5.347.467.669.227.090
36.22;5.388.872.377.003.800
36.24;5.465.755.731.868.210
36.26;5.450.072.767.321.690
36.28;5.412.010.071.662.650
36.3;5.412.816.542.209.560
36.32;5.432.502.250.926.600
36.34;5.445.916.772.482.170
36.36;5.461.357.219.188.800
36.38;5.494.105.385.833.920
36.4;5.528.768.084.703.420
36.42;555.009.927.632.503
36.44;5.580.797.775.521.370
36.46;5.632.845.715.478.920
36.48;5.674.932.023.408.260
36.5;5.688.803.285.000.400
36.52;5.691.749.506.737.940
36.54;5.686.905.477.925.070
36.56;5.657.964.242.653.020
36.58;5.604.346.850.351.460
36.6;5.533.776.171.383.230
36.62;5.460.136.751.820.150
36.64;5.413.781.875.030.700
36.66;5.390.020.893.800.070
36.68;5.344.456.146.635.290
36.7;529.440.991.109.045
36.72;5.300.249.466.130.300
36.74;5.333.823.025.564.630
36.76;532.931.143.736.326
36.78;5.308.845.240.138.130
36.8;5.304.288.372.479.720
36.82;5.283.755.930.528.190
36.84;5.254.692.680.994.960
36.86;5.264.155.541.876.440
36.88;527.928.564.030.009
36.9;5.246.740.991.390.870
36.92;5.212.390.534.343.490
36.94;5.236.088.045.564.670
36.96;5.281.678.965.335.780
36.98;5.288.840.980.622.880
37;5.274.434.985.877.470
37.02;529.782.086.485.658
37.04;5.365.753.434.538.380
37.06;5.436.028.154.728.780
37.08;549.094.400.050.415
37.1;551.962.432.095.019
37.12;5.480.355.696.083.490
37.14;538.756.223.798.842
37.16;5.339.768.013.774.820
37.18;5.361.106.761.523.460
37.2;5.347.817.930.459.620
37.22;5.263.037.953.064.480
37.24;5.218.531.731.660.490
37.26;52.486.731.346.085
37.28;5.234.573.662.629.390
37.3;5.197.569.437.348.030
37.32;5.269.305.683.594.640
37.34;5.286.176.056.026.860
37.36;5.134.623.639.130.040
37.38;5.317.608.960.172.550
37.4;6.035.480.590.815.710
37.42;6.341.375.579.331.190
37.44;5.628.149.767.616.640
37.46;4.823.977.343.508.640
37.48;4.813.184.048.264.460
37.5;5.156.299.880.288.170
37.52;5.236.598.923.309.790
37.54;5.167.001.134.211.970
37.56;5.172.981.512.542.560
37.58;5.205.177.370.797.230
37.6;5.212.045.617.236.530
37.62;5.219.062.776.811.980
37.64;5.239.678.858.722.740
37.66;5.264.319.387.262.950
37.68;5.265.310.400.290.450
37.7;5.248.146.248.625.990
37.72;52.580.149.641.225
37.74;5.286.656.527.118.870
37.76;5.297.896.072.175.180
37.78;5.316.645.982.157.130
37.8;5.358.451.706.300.810
37.82;5.382.217.235.797.540
37.84;5.389.276.199.724.310
37.86;5.420.387.184.060.760
37.88;5.446.616.850.736.670
37.9;5.401.848.253.822.610
37.92;5.305.385.624.850.610
37.94;5.242.994.695.086.320
37.96;5.233.138.474.222.920
37.98;5.216.713.394.199.730
38;5.185.588.138.223.000
38.02;51.904.648.368.373
38.04;5.224.739.326.025.980
38.06;5.244.036.745.406.570
38.08;5.254.977.856.367.520
38.1;5.268.991.563.997.410
38.12;5.265.814.450.939.840
38.14;5.256.716.025.565.200
38.16;5.264.393.879.039.030
38.18;5.262.937.556.710.230
38.2;5.241.996.473.535.980
38.22;5.246.453.299.934.390
38.24;5.280.984.163.111.920
38.26;5.286.581.341.638.480
38.28;525.034.399.428.677
38.3;522.372.884.556.217
38.32;5.227.915.873.222.340
38.34;5.255.087.189.149.010
38.36;5.319.042.729.920.110
38.38;5.393.152.117.302.830
38.4;5.398.586.448.091.060
38.42;5.332.909.125.868.760
38.44;5.267.726.714.172.610
38.46;5.222.757.277.733.490
38.48;5.188.043.119.013.170
38.5;5.178.572.031.406.560
38.52;5.190.618.798.037.170
38.54;5.204.727.484.035.520
38.56;5.182.373.753.397.770
38.58;50.974.896.132.472.000
38.6;5.070.851.792.732.250
38.62;5.151.528.238.079.410
38.64;5.088.776.168.394.400
38.66;496.908.968.438.969
38.68;5.375.449.703.201.730
38.7;6.080.671.012.682.560
38.72;6.009.434.022.027.820
38.74;5.168.424.300.325.820
38.76;47.071.306.727.915.900
38.78;4.924.700.578.596.790
38.8;51.477.680.136.567
38.82;5.154.112.093.077.690
38.84;5.187.322.803.738.180
38.86;5.240.812.245.971.240
38.88;5.231.036.372.620.820
38.9;5.258.870.408.810.270
38.92;5.348.053.026.573.890
38.94;5.382.913.999.033.650
38.96;5.349.948.722.955.870
38.98;534.110.133.085.587
39;5.384.208.835.541.280
39.02;5.436.956.386.063.670
39.04;5.473.667.725.267.500
39.06;5.509.199.376.738.230
39.08;5.562.542.600.264.870
39.1;5.619.200.371.080.820
39.12;5.657.638.178.113.610
39.14;5.677.046.014.038.370
39.16;5.665.049.699.755.590
39.18;5.616.521.518.959.170
39.2;5.572.933.560.225.840
39.22;5.546.319.387.272.730
39.24;5.482.792.009.348.740
39.26;5.378.880.512.833.770
39.28;5.304.126.066.263.120
39.3;5.275.260.087.566.180
39.32;5.256.301.672.407.880
39.34;5.254.987.117.764.850
39.36;5.284.183.517.839.640
39.38;5.311.595.374.815.280
39.4;5.327.459.834.064.370
39.42;5.354.142.066.044.580
39.44;5.386.400.073.403.410
39.46;5.405.076.378.596.690
39.48;5.404.110.704.854.470
39.5;5.386.574.033.907.330
39.52;5.373.870.330.380.320
39.54;537.928.235.224.178
39.56;5.379.358.072.950.610
39.58;5.362.516.661.025.450
39.6;5.353.311.966.685.930
39.62;5.374.975.214.462.140
39.64;5.443.750.772.007.620
39.66;5.544.696.278.030.900
39.68;5.604.266.997.462.880
39.7;5.595.714.385.991.820
39.72;5.590.101.471.408.560
39.74;5.603.010.184.217.240
39.76;557.554.249.378.721
39.78;5.524.855.273.231.360
39.8;5.496.374.050.100.790
39.82;5.491.911.398.245.090
39.84;5.537.799.352.543.120
39.86;5.569.002.638.239.380
39.88;5.452.561.899.172.190
39.9;532.982.448.814.161
39.92;5.338.299.156.531.030
39.94;5.213.057.745.923.930
39.96;5.060.908.162.239.950
39.98;5.504.668.171.066.730
40;6.170.203.648.494.580
40.02;5.921.019.751.999.290
40.04;5.020.652.582.835.800
40.06;47.129.575.905.462.700
40.08;5.027.843.897.551.940
40.1;5.193.354.589.718.130
40.12;5.176.797.976.080.180
40.14;5.274.380.172.129.640
40.16;5.383.594.722.851.050
40.18;5.408.345.106.525.420
40.2;5.458.394.161.237.580
40.22;5.543.440.523.353.090
40.24;5.580.851.634.442.640
40.26;5.564.107.527.490.400
40.28;554.161.635.021.241
40.3;5.553.431.045.982.380
40.32;5.605.984.915.152.620
40.34;5.671.012.185.175.840
40.36;57.239.436.813.973
40.38;57.680.308.814.943
40.4;5.813.650.896.760.130
40.42;585.507.884.518.971
40.44;5.879.420.884.296.090
40.46;5.884.667.123.445.960
40.48;5.868.361.184.267.380
40.5;582.266.834.090.314
40.52;5.757.485.139.409.460
40.54;5.691.940.348.671.370
40.56;5.634.570.407.887.750
40.58;5.598.904.034.901.300
40.6;5.590.434.219.814.510
40.62;5.593.763.044.097.290
40.64;56.203.155.326.825
40.66;5.672.601.714.014.660
40.68;5.674.701.653.118.160
40.7;5.608.786.156.009.710
40.72;5.593.270.761.290.510
40.74;5.650.809.608.395.140
40.76;5.644.657.181.490.230
40.78;554.547.294.960.356
40.8;547.218.148.216.704
40.82;5.472.832.480.734.400
40.84;5.493.101.828.010.240
40.86;5.491.196.382.357.040
40.88;5.468.399.317.078.170
40.9;5.445.483.725.212.410
40.92;5.434.273.990.296.880
40.94;5.437.900.384.660.400
40.96;5.477.023.746.664.470
40.98;5.543.342.137.775.720
41;5.569.596.735.818.690
41.02;5.539.540.662.755.120
41.04;550.757.572.604.803
41.06;5.464.800.750.262.290
41.08;5.388.279.009.586.100
41.1;5.357.216.322.127.430
41.12;539.254.995.022.156
41.14;5.394.857.745.687.820
41.16;5.368.389.291.707.850
41.18;5.367.888.013.928.670
41.2;5.350.536.371.404.220
41.22;5.389.330.470.994.680
41.24;5.530.508.177.995.720
41.26;5.475.897.269.136.390
41.28;5.288.171.640.875.140
41.3;5.667.713.360.050.650
41.32;6.454.772.413.332.830
41.34;6.434.749.041.230.650
41.36;5.511.378.427.700.010
41.38;4.944.548.020.373.600
41.4;5.149.444.942.137.020
41.42;5.413.015.729.846.950
41.44;5.422.408.372.843.360
41.46;5.397.335.652.899.470
41.48;5.383.202.521.396.130
41.5;5.344.404.428.674.160
41.52;5.351.790.376.874.970
41.54;5.409.204.867.653.400
41.56;5.472.867.298.333.840
41.58;5.546.184.949.517.060
41.6;5.598.729.035.501.190
41.62;5.595.153.800.738.320
41.64;5.594.471.582.713.480
41.66;5.637.802.330.837.890
41.68;5.663.951.726.929.440
41.7;5.657.244.558.066.940
41.72;5.689.487.234.073.700
41.74;5.756.418.076.304.500
41.76;5.775.833.506.406.760
41.78;5.753.423.079.792.320
41.8;5.740.603.926.943.590
41.82;568.061.539.816.912
41.84;5.529.070.768.625.130
41.86;5.400.203.830.033.710
41.88;5.377.266.501.465.730
41.9;5.382.702.339.604.850
41.92;535.503.367.786.936
41.94;5.323.271.658.170.170
41.96;5.315.049.154.241.250
41.98;5.338.386.894.227.280
42;5.359.124.021.793.730
42.02;531.325.563.546.908
42.04;5.245.707.999.483.200
42.06;5.266.433.233.039.300
42.08;5.332.885.990.310.060
42.1;5.332.892.504.580.790
42.12;5.311.787.809.622.360
42.14;5.353.515.741.262.760
42.16;5.404.708.870.959.090
42.18;5.409.033.489.159.610
42.2;5.401.035.288.290.720
42.22;5.405.807.539.548.070
42.24;5.436.730.593.052.080
42.26;5.521.856.460.161.370
42.28;5.630.283.653.197.630
42.3;5.697.874.406.650.500
42.32;5.709.270.668.586.290
42.34;5.670.286.600.692.790
42.36;5.597.817.473.486.740
42.38;5.539.314.203.882.860
42.4;5.511.591.827.111.140
42.42;5.480.956.414.651.480
42.44;5.440.626.668.252.610
42.46;5.428.169.126.902.620
42.48;5.430.685.445.758.670
42.5;5.373.610.004.970.140
42.52;530.474.602.319.826
42.54;5.339.647.706.788.170
42.56;5.322.387.497.747.860
42.58;515.962.137.996.398
42.6;534.312.844.495.108
42.62;6.024.245.564.470.340
42.64;6.244.681.830.055.690
42.66;5.502.225.177.539.610
42.68;47.960.568.830.224.400
42.7;4.885.616.239.512.210
42.72;5.210.553.835.969.160
42.74;523.095.560.406.276
42.76;5.163.350.774.156.060
42.78;5.210.101.823.896.870
42.8;5.264.944.482.377.700
42.82;528.314.800.497.372
42.84;5.326.610.255.858.230
42.86;5.388.334.123.218.780
42.88;5.416.950.475.242.820
42.9;5.434.823.962.738.500
42.92;5.496.124.554.513.660
42.94;5.572.654.600.488.740
42.96;5.629.517.853.655.530
42.98;571.294.452.283.095
43;5.808.903.909.557.650
43.02;5.815.220.077.422.900
43.04;5.759.195.748.384.360
43.06;5.766.014.464.458.070
43.08;5.793.344.265.547.370
43.1;5.712.028.377.943.750
43.12;5.581.453.534.345.840
43.14;5.522.289.031.984.350
43.16;5.465.695.166.963.970
43.18;5.334.714.668.822.670
43.2;523.988.894.805.158
43.22;5.243.454.521.679.040
43.24;5.236.323.180.419.970
43.26;5.189.681.149.846.770
43.28;5.188.303.371.903.620
43.3;5.213.469.133.709.260
43.32;5.200.273.249.688.370
43.34;5.193.359.818.304.890
43.36;5.236.740.872.346.340
43.38;5.279.981.508.266.020
43.4;5.282.811.030.801.280
43.42;526.918.600.412.398
43.44;5.270.078.525.929.160
43.46;5.281.087.912.632.440
43.48;5.282.753.611.962.560
43.5;5.295.171.414.414.980
43.52;5.356.851.666.518.080
43.54;5.452.870.130.929.110
43.56;5.538.678.561.788.010
43.58;55.893.199.428.855
43.6;558.473.733.519.443
43.62;5.516.956.429.670.710
43.64;5.420.196.536.275.840
43.66;5.357.416.550.471.450
43.68;5.353.431.624.484.440
43.7;5.348.249.088.401.340
43.72;5.307.554.355.987.360
43.74;5.300.926.699.293.650
43.76;5.307.438.750.697.340
43.78;5.229.890.681.558.570
43.8;5.208.971.091.750.870
43.82;5.328.012.003.305.310
43.84;5.264.646.492.505.010
43.86;5.117.160.256.690.060
43.88;5.571.830.147.839.680
43.9;6.312.049.913.430.760
43.92;6.132.039.261.681.750
43.94;5.196.047.620.493.250
43.96;4.812.623.992.969.550
43.98;5.142.618.127.632.410
44;5.370.223.167.323.680
44.02;5.316.947.567.738.970
44.04;5.302.594.830.708.670
44.06;5.368.766.467.794.650
44.08;5.398.962.311.138.420
44.1;5.378.510.562.679.330
44.12;5.370.865.239.979.980
44.14;5.427.205.427.469.480
44.16;5.493.963.182.695.690
44.18;5.500.286.973.588.900
44.2;5.488.302.706.587.630
44.22;5.512.592.740.856.730
44.24;5.561.099.095.540.060
44.26;5.614.461.037.819.660
44.28;5.638.409.948.727.830
44.3;561.279.753.065.908
44.32;5.602.225.810.591.210
44.34;5.639.481.766.043.560
44.36;5.640.097.073.453.240
44.38;5.563.417.312.134.640
44.4;548.202.459.361.024
44.42;5.435.263.888.434.220
44.44;5.387.102.367.689.490
44.46;5.325.049.512.448.090
44.48;5.278.005.496.402.090
44.5;5.262.906.616.507.070
44.52;5.274.760.437.160.620
44.54;5.293.274.386.959.920
44.56;5.288.322.104.175.580
44.58;5.262.963.306.567.740
44.6;5.260.565.561.010.700
44.62;5.293.294.405.522.820
44.64;5.327.063.943.024.600
44.66;5.340.886.091.066.780
44.68;5.341.839.853.920.610
44.7;5.352.881.027.243.680
44.72;5.385.103.024.558.070
44.74;5.398.536.827.116.700
44.76;5.372.629.885.004.280
44.78;5.368.190.323.326.600
44.8;5.405.675.447.472.900
44.82;5.423.636.810.906.720
44.84;5.420.887.031.611.900
44.86;5.453.076.289.856.460
44.88;5.513.760.096.708.330
44.9;5.562.274.993.189.400
44.92;5.582.845.188.381.550
44.94;5.560.776.243.151.530
44.96;5.487.386.307.842.920
44.98;5.390.259.654.642.770
45;5.326.623.850.438.930
45.02;5.338.413.966.492.750
45.04;5.381.737.850.782.250
45.06;5.361.955.143.740.260
45.08;528.316.001.288.592
45.1;5.232.253.933.398.050
45.12;52.525.752.327.347
45.14;5.345.219.555.289.930
45.16;5.382.583.813.920.670
45.18;521.123.015.598.874
45.2;5.209.667.716.228.860
45.22;585.762.908.972.672
45.24;6.452.690.328.965.210
45.26;5.967.716.776.402.020
45.28;502.120.439.899.257
45.3;4.848.557.240.588.000
45.32;5.224.251.627.431.540
45.34;5.341.772.378.071.960
45.36;5.284.771.515.896.200
45.38;5.359.025.294.935.430
45.4;5.425.350.275.208.760
45.42;5.396.649.881.430.500
45.44;5.387.346.724.705.680
45.46;5.407.028.302.464.970
45.48;5.423.990.837.904.420
45.5;5.482.940.227.929.280
45.52;5.557.426.053.518.960
45.54;5.556.898.461.772.990
45.56;5.521.625.758.836.960
45.58;5.551.758.502.742.850
45.6;5.605.293.019.658.820
45.62;5.614.786.310.607.760
45.64;5.641.934.246.574.770
45.66;5.711.722.489.658.460
45.68;5.727.435.902.755.600
45.7;5.661.142.282.653.710
45.72;5.595.507.857.045.950
45.74;5.567.067.768.788.990
45.76;5.529.922.337.220.830
45.78;5.446.455.345.480.940
45.8;5.352.047.614.628.970
45.82;531.566.442.781.161
45.84;5.326.042.650.958.620
45.86;5.311.799.902.913.280
45.88;5.285.920.751.220.970
45.9;530.130.445.738.558
45.92;5.313.562.703.313.050
45.94;5.286.206.857.800.730
45.96;5.292.214.255.321.400
45.98;5.346.772.487.074.100
46;5.355.329.662.862.690
46.02;5.309.141.155.779.260
46.04;5.285.450.020.792.130
46.06;5.279.787.947.589.960
46.08;5.267.978.198.575.960
46.1;5.303.551.087.639.060
46.12;5.376.033.384.233.350
46.14;5.379.173.773.641.000
46.16;5.313.830.082.473.600
46.18;5.288.676.795.035.120
46.2;5.331.433.007.304.800
46.22;5.396.937.541.856.650
46.24;5.460.728.327.512.150
46.26;5.504.108.138.996.620
46.28;5.515.437.677.083.050
46.3;548.120.180.426.072
46.32;5.373.648.522.440.070
46.34;5.259.803.524.342.400
46.36;5.261.353.596.974.250
46.38;5.315.796.586.093.300
46.4;5.276.961.089.123.840
46.42;5.218.180.460.800.530
46.44;5.254.694.252.454.780
46.46;5.262.721.918.373.600
46.48;5.188.583.209.859.310
46.5;5.227.356.124.233.280
46.52;531.172.540.139.843
46.54;5.194.121.468.034.760
46.56;5.248.155.851.545.220
46.58;5.888.833.801.155.930
46.6;635.658.522.568.204
46.62;582.136.398.297.075
46.64;49.953.806.567.344.400
46.66;488.984.012.278.812
46.68;5.211.791.734.643.060
46.7;5.316.967.996.239.350
46.72;5.278.591.652.575.790
46.74;5.307.177.217.698.930
46.76;5.334.847.777.545.510
46.78;5.338.127.649.393.660
46.8;5.361.919.797.636.460
46.82;5.373.822.253.117.610
46.84;5.368.836.801.092.870
46.86;539.449.951.858.006
46.88;5.434.335.654.132.280
46.9;5.444.835.548.787.640
46.92;5.456.604.561.689.090
46.94;5.510.278.300.713.870
46.96;5.569.416.954.745.360
46.98;5.593.544.636.224.390
47;5.601.037.926.342.560
47.02;559.948.705.803.557
47.04;5.573.605.350.236.480
47.06;5.547.851.760.615.980
47.08;5.537.364.333.849.700
47.1;5.500.619.841.308.130
47.12;5.434.042.227.435.810
47.14;5.384.935.507.301.120
47.16;5.340.422.189.226.580
47.18;5.273.774.698.132.410
47.2;5.244.158.629.536.610
47.22;527.801.267.701.007
47.24;5.300.704.813.612.590
47.26;5.298.553.524.979.000
47.28;5.326.568.735.910.650
47.3;5.355.877.724.506.640
47.32;5.345.148.702.723.080
47.34;5.340.974.511.898.180
47.36;5.354.599.679.090.500
47.38;5.340.585.864.647.980
47.4;532.478.367.518.348
47.42;5.350.154.501.112.560
47.44;5.371.596.436.976.810
47.46;5.351.143.387.144.860
47.48;5.335.951.281.438.570
47.5;5.359.044.912.047.430
47.52;5.395.763.409.944.250
47.54;545.270.593.969.582
47.56;5.546.593.022.740.940
47.58;5.605.533.668.893.490
47.6;556.257.908.964.893
47.62;5.476.226.563.448.060
47.64;5.416.110.768.573.160
47.66;5.369.428.425.671.730
47.68;5.321.925.806.512.090
47.7;527.754.815.587.174
47.72;5.247.643.349.608.870
47.74;5.271.629.613.687.720
47.76;5.304.251.258.401.060
47.78;5.260.293.738.399.370
47.8;5.270.953.172.657.590
47.82;539.580.397.404.782
47.84;5.321.939.575.438.410
47.86;5.159.178.064.592.300
47.88;5.599.630.094.562.220
47.9;6.363.014.904.453.920
47.92;6.234.328.065.012.320
47.94;5.295.142.791.509.710
47.96;484.522.415.866.311
47.98;5.122.428.183.111.540
48;534.885.233.036.118
48.02;5.347.858.917.196.080
48.04;5.399.448.540.605.000
48.06;546.011.619.348.686
48.08;5.443.213.489.845.450
48.1;5.443.888.500.693.940
48.12;5.468.240.935.180.380
48.14;5.462.287.291.949.730
48.16;5.467.082.704.569.120
48.18;5.509.326.059.863.820
48.2;5.548.892.598.014.810
48.22;557.809.977.848.902
48.24;5.616.901.391.795.470
48.26;5.651.472.144.324.680
48.28;5.665.284.537.022.880
48.3;5.677.735.722.937.650
48.32;5.704.656.273.418.560
48.34;5.719.228.834.481.210
48.36;5.693.982.726.451.850
48.38;565.008.207.069.702
48.4;5.609.923.327.379.500
48.42;5.550.088.419.985.640
48.44;5.468.104.211.488.330
48.46;5.410.040.187.972.190
48.48;5.379.222.732.069.370
48.5;5.344.761.710.996.840
48.52;5.337.528.519.559.650
48.54;538.226.843.347.871
48.56;5.412.818.231.221.630
48.58;5.388.461.420.805.530
48.6;5.359.560.421.105.350
48.62;5.358.948.153.913.930
48.64;537.114.675.414.673
48.66;5.389.751.811.268.420
48.68;5.405.810.785.189.220
48.7;540.328.230.888.324
48.72;5.402.190.398.265.630
48.74;5.424.332.044.640.660
48.76;543.366.274.159.079
48.78;5.402.490.996.007.040
48.8;5.380.065.465.298.720
48.82;5.405.320.071.250.400
48.84;5.435.183.854.720.190
48.86;5.426.841.544.721.990
48.88;540.585.706.546.239
48.9;5.421.637.119.333.730
48.92;5.486.528.431.396.200
48.94;5.562.576.693.687.180
48.96;5.599.562.710.147.210
48.98;5.575.374.051.537.860
49;549.786.463.594.638
49.02;5.414.821.962.743.310
49.04;5.390.444.267.903.040
49.06;5.403.543.995.099.590
49.08;5.373.648.578.772.900
49.1;5.328.683.765.673.510
49.12;5.336.197.099.643.750
49.14;5.321.605.446.420.590
49.16;5.272.834.160.833.700
49.18;5.343.451.391.704.520
49.2;5.405.988.995.638.790
49.22;5.238.888.939.325.140
49.24;5.322.545.103.682.730
49.26;6.062.752.144.918.550
49.28;6.517.470.880.466.620
49.3;5.823.839.210.389.530
49.32;4.929.468.653.356.560
49.34;493.845.428.231.003
49.36;5.350.635.108.524.550
49.38;5.414.821.848.175.420
49.4;5.339.080.217.401.430
49.42;5.395.193.426.869.880
49.44;5.423.205.051.873.850
49.46;5.380.575.851.779.080
49.48;5.390.997.104.391.580
49.5;5.435.239.532.611.830
49.52;5.451.341.550.300.570
49.54;5.471.737.434.431.830
49.56;5.507.691.984.506.950
49.58;551.973.179.654.606
49.6;5.522.208.982.866.910
49.62;55.576.581.881.864
49.64;5.605.947.627.338.300
49.66;5.632.503.513.219.080
49.68;5.653.159.622.503.070
49.7;567.535.043.464.524
49.72;5.668.555.946.193.450
49.74;5.631.841.747.019.130
49.76;559.731.033.326.148
49.78;5.563.232.244.822.620
49.8;5.506.572.104.324.010
49.82;5.442.278.926.916.030
49.84;5.399.701.667.740.140
49.86;537.047.253.941.672
49.88;5.335.841.735.828.420
49.9;530.759.156.379.109
49.92;5.304.878.106.070.700
49.94;5.326.369.394.747.860
49.96;5.350.977.731.952.980
49.98;535.273.880.305.532
50;5.341.312.033.354.640
50.02;535.615.298.782.684
50.04;5.387.410.689.515.570
50.06;5.387.278.548.628.480
50.08;5.368.099.717.866.020
50.1;5.377.028.794.703.610
50.12;5.399.049.795.391.880
50.14;5.382.168.980.663.360
50.16;5.329.349.961.737.920
50.18;5.307.616.046.145.090
50.2;535.317.570.457.999
50.22;5.403.531.865.409.230
50.24;5.392.163.756.381.610
50.26;5.350.692.460.759.950
50.28;5.328.944.731.286.080
50.3;5.317.526.436.283.690
50.32;5.308.294.117.881.230
50.34;5.330.316.947.140.030
50.36;5.407.751.842.307.210
50.38;550.883.294.631.645
50.4;5.553.346.469.601.240
50.42;5.515.853.468.348.530
50.44;5.450.346.397.660.750
50.46;5.383.578.249.267.070
50.48;5.317.572.063.927.850
50.5;5.288.190.994.755.810
50.52;5.308.370.661.319.000
50.54;5.344.995.085.536.490
50.56;5.339.984.861.573.880
50.58;5.246.781.893.523.670
50.6;518.754.270.018.959
50.62;5.309.535.500.988.370
50.64;5.365.137.158.920.730
50.66;5.170.898.429.420.780
50.68;5.302.015.085.800.190
50.7;6.039.639.788.608.880
50.72;6.379.300.841.364.850
50.74;5.686.842.659.944.690
50.76;493.634.129.388.717
50.78;4.938.571.924.114.760
50.8;520.545.890.746.365
50.82;5.273.989.565.209.990
50.84;5.304.738.323.633.500
50.86;5.343.315.066.723.510
50.88;5.301.841.255.888.420
50.9;5.285.770.924.421.740
50.92;534.962.128.393.299
50.94;5.395.617.371.878.270
50.96;5.386.708.692.841.060
50.98;536.566.614.519.186
51;5.388.310.981.477.190
51.02;5.480.968.271.718.040
51.04;5.566.559.042.239.920
51.06;5.561.650.833.620.320
51.08;5.522.321.395.009.070
51.1;5.527.418.309.897.380
51.12;5.554.357.052.738.280
51.14;5.581.069.976.812.810
51.16;5.622.016.084.281.610
51.18;5.631.335.408.448.370
51.2;5.558.835.012.265.000
51.22;5.464.446.081.103.310
51.24;5.409.938.858.665.090
51.26;5.345.813.377.265.140
51.28;5.247.791.458.874.610
51.3;5.200.874.590.608.210
51.32;5.245.983.164.394.670
51.34;5.303.286.975.037.630
51.36;5.294.134.387.061.140
51.38;524.474.554.740.913
51.4;524.440.202.995.291
51.42;5.310.336.644.274.290
51.44;5.357.371.071.915.930
51.46;5.343.332.534.852.960
51.48;532.859.036.196.912
51.5;5.357.285.176.573.540
51.52;5.395.029.766.704.860
51.54;5.389.791.585.189.670
51.56;5.349.848.585.617.090
51.58;5.342.046.724.476.340
51.6;5.380.800.383.825.830
51.62;5.403.699.251.027.760
51.64;5.386.373.995.983.240
51.66;5.354.097.875.323.230
51.68;5.333.493.588.465.370
51.7;5.365.031.759.530.690
51.72;5.445.216.067.396.700
51.74;5.505.685.123.932.210
51.76;5.518.941.005.590.800
51.78;548.738.234.901.797
51.8;5.398.150.915.904.030
51.82;5.320.812.862.565.540
51.84;53.409.597.008.732
51.86;5.364.567.185.870.730
51.88;5.294.467.045.641.820
51.9;5.255.643.486.729.470
51.92;5.292.439.148.469.300
51.94;5.248.301.123.559.850
51.96;52.130.859.233.517
51.98;5.336.772.007.006.090
52;5.294.880.207.364.820
52.02;50.604.147.236.537.600
52.04;5.413.120.454.780.800
52.06;63.239.945.675.696
52.08;645.459.031.405.806
52.1;5.494.667.666.741.250
52.12;478.177.085.212.914
52.14;49.370.662.673.448.600
52.16;52.314.113.788.328
52.18;5.255.956.267.015.890
52.2;5.270.280.315.716.710
52.22;5.355.798.842.407.570
52.24;5.403.917.937.569.140
52.26;5.416.818.316.167.620
52.28;5.403.595.711.242.290
52.3;5.369.341.607.479.540
52.32;5.374.022.121.476.380
52.34;5.421.756.295.567.150
52.36;5.462.678.507.126.770
52.38;5.487.988.373.100.750
52.4;5.500.180.530.080.120
52.42;5.508.895.061.888.320
52.44;5.544.887.739.468.940
52.46;5.586.020.093.851.660
52.48;559.432.820.197.564
52.5;5.598.343.143.155.660
52.52;5.600.673.702.268.440
52.54;554.526.588.640.467
52.56;5.456.779.135.062.100
52.58;5.431.694.975.995.410
52.6;5.454.225.284.718.780
52.62;5.406.709.850.165.860
52.64;5.291.285.626.266.350
52.66;5.229.176.834.901.250
52.68;5.247.799.444.937.230
52.7;5.292.072.406.878.560
52.72;5.337.468.311.025.780
52.74;5.347.320.107.936.670
52.76;5.310.971.645.737.990
52.78;5.298.346.515.021.840
52.8;5.324.632.826.992.110
52.82;5.339.202.896.832.950
52.84;5.347.133.033.015.010
52.86;5.350.348.476.686.670
52.88;5.323.354.823.394.440
52.9;5.307.382.026.173
52.92;5.324.164.736.316.800
52.94;5.318.503.828.710.700
52.96;5.315.929.058.084.480
52.98;5.372.390.818.487.190
53;5.389.341.484.553.070
53.02;5.305.454.719.872.890
53.04;5.286.069.193.443.840
53.06;5.421.413.691.726.700
53.08;554.131.638.464.766
53.1;5.526.379.700.617.170
53.12;5.454.525.129.375.090
53.14;5.386.582.824.934.340
53.16;5.322.034.490.492.700
53.18;5.288.670.123.246.600
53.2;5.276.698.734.513.450
53.22;5.257.747.130.210.680
53.24;5.275.044.007.497.910
53.26;5.307.527.192.877.300
53.28;5.280.856.804.004.290
53.3;5.290.553.371.580.840
53.32;5.333.243.606.325.170
53.34;5.175.299.076.091.690
53.36;5.123.519.498.378.520
53.38;5.799.113.680.080.010
53.4;6.577.492.773.270.880
53.42;6.196.750.498.982.800
53.44;5.077.689.315.374.500
53.46;46.752.907.544.650.300
53.48;5.047.817.547.724.410
53.5;527.485.625.170.201
53.52;5.213.446.109.763.510
53.54;5.231.626.442.720.710
53.56;5.319.309.718.894.700
53.58;5.316.677.680.917.950
53.6;5.269.350.565.738.280
53.62;5.281.855.596.307.500
53.64;5.349.434.571.257.900
53.66;5.387.957.343.678.440
53.68;5.379.515.644.876.260
53.7;5.404.706.376.534.280
53.72;5.472.764.869.498.170
53.74;5.493.409.510.376.700
53.76;5.471.915.873.169.850
53.78;5.511.314.248.660.770
53.8;56.056.771.388.727
53.82;5.641.500.235.308.140
53.84;5.590.827.996.347.420
53.86;5.540.856.287.321.290
53.88;5.542.133.376.732.650
53.9;5.533.158.626.731.820
53.92;544.984.617.864.098
53.94;5.348.994.695.755.100
53.96;5.324.415.420.416.390
53.98;5.340.730.059.428.000
54;5.299.584.291.867.020
54.02;5.224.793.557.953.320
54.04;5.210.059.735.455.200
54.06;5.244.509.321.044.050
54.08;525.757.881.792.222
54.1;5.264.612.939.736.940
54.12;5.311.894.866.001.170
54.14;5.353.105.670.856.040
54.16;5.334.390.237.332.970
54.18;531.122.160.750.874
54.2;533.390.478.364.741
54.22;53.525.035.931.066
54.24;5.342.718.509.131.890
54.26;5.345.497.549.273.280
54.28;5.350.199.704.575.120
54.3;5.322.906.450.433.270
54.32;5.307.244.558.958.710
54.34;5.345.492.202.053.790
54.36;5.385.857.906.651.660
54.38;5.390.989.875.308.480
54.4;5.425.933.342.680.610
54.42;5.521.326.395.649.880
54.44;5.590.384.715.606.150
54.46;5.576.378.883.774.370
54.48;5.517.860.987.998.270
54.5;5.446.372.623.423.880
54.52;5.387.346.405.338.540
54.54;538.664.636.588.798
54.56;5.407.170.455.901.560
54.58;5.372.529.030.631.230
54.6;5.342.406.213.872.180
54.62;5.374.957.560.906.950
54.64;5.376.325.699.619.700
54.66;5.364.363.009.269.450
54.68;5.411.116.747.481.910
54.7;5.339.200.124.266.130
54.72;5.300.288.168.946.460
54.74;5.881.981.880.748.410
54.76;6.642.123.884.900.590
54.78;6.322.502.452.985.720
54.8;5.217.704.830.134.410
54.82;4.812.246.891.805.900
54.84;5.186.924.757.764.910
54.86;5.384.803.826.202.290
54.88;5.338.561.610.157.580
54.9;5.409.825.305.036.120
54.92;544.457.986.045.607
54.94;5.369.162.738.041.710
54.96;5.415.776.306.866.070
54.98;5.536.842.611.899.120
55;5.537.079.592.032.220
55.02;5.510.710.709.925.080
55.04;5.575.564.731.390.600
55.06;5.613.580.799.043.700
55.08;5.570.337.760.151.490
55.1;5.576.773.818.181.830
55.12;5.665.853.036.274.920
55.14;5.729.330.765.439.830
55.16;573.423.394.619.893
55.18;5.725.243.223.045.910
55.2;5.714.365.554.270.450
55.22;5.706.016.295.013.870
55.24;5.689.649.413.265.130
55.26;5.604.444.121.657.400
55.28;5.467.523.605.876.060
55.3;5.402.054.611.763.910
55.32;5.408.836.461.687.000
55.34;5.365.322.407.627.820
55.36;5.295.096.494.602.480
55.38;5.306.900.657.238.810
55.4;5.342.589.221.439.720
55.42;5.311.597.815.462.070
55.44;5.280.208.124.137.120
55.46;5.300.721.275.758.120
55.48;5.318.835.380.971.720
55.5;5.320.863.802.205.300
55.52;5.332.758.967.132.640
55.54;5.338.710.679.072.550
55.56;5.327.704.388.848.510
55.58;5.313.112.347.634.940
55.6;5.300.807.909.809.360
55.62;5.294.098.998.030.410
55.64;5.288.668.565.150.400
55.66;5.276.959.193.334.620
55.68;5.268.127.069.087.640
55.7;5.273.921.910.579.670
55.72;5.294.355.378.962.370
55.74;5.304.803.213.167.540
55.76;5.274.715.431.187.090
55.78;524.118.563.685.114
55.8;5.266.731.600.468.780
55.82;5.329.009.697.509.030
55.84;5.387.038.698.234.970
55.86;5.448.684.277.708.430
55.88;5.486.256.512.066.430
55.9;5.452.751.762.493.790
55.92;5.376.138.644.123.910
55.94;5.322.962.722.135.080
55.96;5.318.961.116.118.410
55.98;5.322.026.678.895.730
56;5.298.551.373.616.220
56.02;5.307.953.675.851.160
56.04;5.342.984.942.471.940
56.06;5.300.992.714.155.440
56.08;5.282.198.338.205.160
56.1;5.358.814.476.242.420
56.12;5.267.161.880.752.010
56.14;5.185.811.591.797.900
56.16;5.777.743.462.255.080
56.18;6.575.200.455.459.230
56.2;6.292.239.236.861.980
56.22;5.218.745.989.538.330
56.24;4.802.587.791.306.080
56.26;51.525.542.657.948
56.28;5.364.483.783.520.820
56.3;5.317.909.862.663.230
56.32;5.359.322.388.209.190
56.34;5.428.844.620.719.500
56.36;5.420.891.244.655.820
56.38;542.809.826.039.254
56.4;5.447.476.863.142.140
56.42;5.426.856.832.290.010
56.44;5.426.806.199.576.370
56.46;5.487.569.733.997.640
56.48;5.543.572.793.772.530
56.5;5.549.409.205.379.450
56.52;5.557.885.596.963.220
56.54;5.606.997.171.182.190
56.56;5.635.753.209.464.870
56.58;5.621.109.142.510.870
56.6;5.639.389.965.308.420
56.62;5.693.596.005.609.610
56.64;5.699.843.554.809.520
56.66;5.652.954.929.871.000
56.68;5.601.459.267.639.140
56.7;5.549.971.869.146.360
56.72;5.492.499.082.211.680
56.74;5.432.371.547.687.060
56.76;5.375.437.869.769.180
56.78;5.346.188.620.671.860
56.8;5.346.635.247.510.990
56.82;5.340.509.771.711.650
56.84;5.328.245.490.305.390
56.86;5.342.643.467.939.280
56.88;5.363.753.844.150.370
56.9;5.355.979.887.402.910
56.92;5.355.995.018.846.110
56.94;539.386.359.077.517
56.96;540.710.691.434.798
56.98;5.369.473.518.442.220
57;5.357.581.464.203.740
57.02;5.382.456.348.792.090
57.04;5.375.327.766.553.470
57.06;5.359.506.149.079.460
57.08;5.385.292.707.159.890
57.1;5.398.501.783.154.420
57.12;5.374.167.753.910.690
57.14;5.378.618.650.896.390
57.16;5.411.538.820.332.090
57.18;54.151.669.696.257
57.2;5.409.335.235.992.850
57.22;5.430.857.155.551.960
57.24;5.447.824.876.980.000
57.26;5.444.247.562.511.370
57.28;5.455.960.107.898.860
57.3;549.129.829.588.785
57.32;5.531.043.933.426.420
57.34;5.581.115.978.309.910
57.36;5.649.308.886.623.440
57.38;570.580.491.326.459
57.4;5.702.370.635.041.560
57.42;5.624.845.203.331.850
57.44;55.263.918.782.868
57.46;5.484.739.762.987.590
57.48;5.500.428.072.074.830
57.5;5.491.926.055.997.790
57.52;544.134.770.816.855
57.54;5.415.567.610.345.810
57.56;5.402.043.872.857.590
57.58;5.383.849.971.254.600
57.6;5.459.561.915.991.770
57.62;5.517.632.226.213.500
57.64;5.347.084.083.364.940
57.66;537.517.850.761.541
57.68;6.051.619.809.380.380
57.7;6.557.182.957.502.000
57.72;5.977.964.158.814.530
57.74;5.082.579.239.820.450
57.76;4.968.803.514.035.190
57.78;5.295.686.447.357.990
57.8;5.376.228.722.432.230
57.82;5.342.497.440.192.210
57.84;5.410.793.005.325.580
57.86;544.314.042.084.397
57.88;5.419.004.987.144.610
57.9;5.445.057.048.620.620
57.92;5.482.691.971.460.290
57.94;5.468.898.475.540.990
57.96;5.448.004.862.420.330
57.98;5.462.650.123.028.910
58;5.499.318.124.290.550
58.02;5.546.395.363.521.290
58.04;5.598.378.436.496.280
58.06;5.630.496.845.167.270
58.08;563.426.362.256.107
58.1;5.644.718.181.877.050
58.12;5.689.288.923.483.790
58.14;573.769.892.125.187
58.16;573.536.052.894.945
58.18;5.677.392.134.092.750
58.2;5.613.707.483.552.870
58.22;5.568.582.464.956.150
58.24;5.508.175.963.234.370
58.26;5.415.511.515.115.230
58.28;5.341.021.882.040.060
58.3;5.338.751.795.177.830
58.32;5.378.344.290.781.020
58.34;5.380.497.158.142.540
58.36;534.833.429.253.503
58.38;5.356.455.826.407.200
58.4;539.948.375.674.743
58.42;5.412.943.481.411.070
58.44;5.411.071.643.209.380
58.46;5.429.963.876.401.120
58.48;5.442.047.522.257.140
58.5;544.602.976.577.788
58.52;5.467.680.707.006.670
58.54;5.463.664.964.010.960
58.56;5.417.235.020.685.830
58.58;5.409.571.330.033.100
58.6;5.447.087.719.429.460
58.62;543.565.425.765.488
58.64;5.391.101.693.508.390
58.66;5.414.463.036.250.550
58.68;5.474.442.196.531.450
58.7;5.465.426.657.893.700
58.72;5.408.700.566.306.100
58.74;5.391.727.960.619.340
58.76;5.422.278.094.588.730
58.78;5.466.956.455.280.430
58.8;5.492.028.311.732.440
58.82;5.464.278.527.718.900
58.84;5.440.393.961.373.530
58.86;5.512.100.523.703.790
58.88;5.609.114.331.572.570
58.9;5.607.208.853.664.380
58.92;5.563.055.909.142.420
58.94;5.567.502.382.257.690
58.96;5.555.903.488.363.770
58.98;5.487.895.009.352.780
59;5.451.649.301.363.170
59.02;5.455.726.784.396.490
59.04;5.410.522.953.029.810
59.06;5.342.839.202.374.810
59.08;532.088.429.829.367
59.1;5.298.234.028.022.510
59.12;5.312.887.444.384.920
59.14;5.422.165.900.016.100
59.16;5.363.856.405.424.520
59.18;5.130.207.178.641.130
59.2;5.420.190.211.769.010
59.22;6.252.655.876.336.060
59.24;6.384.913.974.256.940
59.26;5.475.198.392.792.750
59.28;48.298.554.817.278.300
59.3;50.641.602.896.734.500
59.32;5.363.721.230.779.720
59.34;5.300.133.675.348.140
59.36;5.252.896.824.699.040
59.38;533.461.598.839.607
59.4;534.805.246.372.277
59.42;5.315.701.000.290.850
59.44;5.344.472.455.590.590
59.46;5.392.780.315.451.210
59.48;5.405.282.080.634.160
59.5;5.411.278.542.575.020
59.52;5.437.157.404.001.850
59.54;5.464.956.656.326.680
59.56;5.492.183.361.367.140
59.58;5.535.854.361.534.370
59.6;5.580.526.607.325.520
59.62;5.600.639.887.872.510
59.64;5.601.448.109.093.960
59.66;5.600.679.388.487.300
59.68;5.611.787.578.959.500
59.7;5.628.595.270.448.390
59.72;5.619.679.764.126.130
59.74;5.574.687.920.833.050
59.76;5.516.508.414.403.700
59.78;5.465.408.677.776.340
59.8;5.435.403.100.748.740
59.82;5.422.908.610.020.340
59.84;5.414.179.057.957.760
59.86;5.430.968.958.914.330
59.88;5.459.070.105.901.530
59.9;5.425.853.607.016.780
59.92;5.400.109.726.210.620
59.94;5.492.225.942.293.300
59.96;5.501.699.270.150.840
59.98;5.230.021.950.551.310
